"nr" "signal"
1 10
2 -7.5
3 -32.5
4 -45
5 -47.5
6 -57.5
7 -62.5
8 -67.5
9 -70
10 -62.5
11 -77.5
12 -82.5
13 -77.5
14 -97.5
15 -102.5
16 -100
17 -105
18 -105
19 -107.5
20 -102.5
21 -100
22 -97.5
23 -85
24 -80
25 -72.5
26 -75
27 -92.5
28 -107.5
29 -135
30 -162.5
31 -177.5
32 -195
33 -210
34 -215
35 -222.5
36 -222.5
37 -205
38 -187.5
39 -145
40 -85
41 -17.5
42 60
43 145
44 227.5
45 280
46 302.5
47 300
48 295
49 255
50 185
51 117.5
52 17.5
53 -92.5
54 -197.5
55 -282.5
56 -335
57 -380
58 -410
59 -430
60 -432.5
61 -430
62 -420
63 -397.5
64 -385
65 -380
66 -365
67 -342.5
68 -332.5
69 -305
70 -282.5
71 -282.5
72 -270
73 -275
74 -275
75 -270
76 -275
77 -285
78 -292.5
79 -292.5
80 -295
81 -290
82 -290
83 -297.5
84 -297.5
85 -300
86 -292.5
87 -287.5
88 -280
89 -280
90 -297.5
91 -305
92 -320
93 -330
94 -317.5
95 -317.5
96 -310
97 -297.5
98 -307.5
99 -310
100 -302.5
101 -300
102 -287.5
103 -277.5
104 -280
105 -280
106 -290
107 -302.5
108 -307.5
109 -310
110 -310
111 -312.5
112 -307.5
113 -307.5
114 -302.5
115 -292.5
116 -292.5
117 -282.5
118 -272.5
119 -260
120 -252.5
121 -250
122 -245
123 -242.5
124 -237.5
125 -230
126 -230
127 -227.5
128 -230
129 -235
130 -235
131 -237.5
132 -242.5
133 -250
134 -260
135 -257.5
136 -252.5
137 -255
138 -255
139 -250
140 -245
141 -237.5
142 -227.5
143 -217.5
144 -205
145 -207.5
146 -197.5
147 -192.5
148 -192.5
149 -182.5
150 -182.5
151 -180
152 -175
153 -170
154 -167.5
155 -162.5
156 -165
157 -175
158 -165
159 -170
160 -172.5
161 -165
162 -162.5
163 -162.5
164 -165
165 -172.5
166 -175
167 -167.5
168 -170
169 -167.5
170 -160
171 -160
172 -157.5
173 -152.5
174 -145
175 -135
176 -120
177 -112.5
178 -105
179 -100
180 -105
181 -100
182 -107.5
183 -117.5
184 -127.5
185 -142.5
186 -152.5
187 -160
188 -170
189 -175
190 -175
191 -177.5
192 -177.5
193 -172.5
194 -165
195 -160
196 -160
197 -157.5
198 -152.5
199 -152.5
200 -157.5
201 -165
202 -172.5
203 -172.5
204 -180
205 -172.5
206 -170
207 -182.5
208 -190
209 -207.5
210 -210
211 -207.5
212 -207.5
213 -207.5
214 -217.5
215 -220
216 -217.5
217 -215
218 -200
219 -185
220 -177.5
221 -167.5
222 -155
223 -152.5
224 -157.5
225 -165
226 -172.5
227 -175
228 -182.5
229 -185
230 -182.5
231 -187.5
232 -192.5
233 -195
234 -187.5
235 -190
236 -190
237 -190
238 -187.5
239 -190
240 -192.5
241 -182.5
242 -177.5
243 -177.5
244 -170
245 -160
246 -147.5
247 -142.5
248 -145
249 -155
250 -175
251 -200
252 -215
253 -215
254 -215
255 -212.5
256 -205
257 -202.5
258 -195
259 -180
260 -157.5
261 -142.5
262 -132.5
263 -130
264 -125
265 -112.5
266 -117.5
267 -115
268 -105
269 -90
270 -77.5
271 -57.5
272 -32.5
273 -10
274 -5
275 -5
276 7.5
277 15
278 25
279 40
280 52.5
281 62.5
282 65
283 70
284 67.5
285 72.5
286 65
287 52.5
288 42.5
289 5
290 -15
291 -37.5
292 -62.5
293 -72.5
294 -87.5
295 -105
296 -115
297 -130
298 -147.5
299 -160
300 -177.5
301 -210
302 -225
303 -245
304 -272.5
305 -275
306 -282.5
307 -290
308 -285
309 -295
310 -297.5
311 -292.5
312 -290
313 -285
314 -280
315 -272.5
316 -267.5
317 -267.5
318 -265
319 -267.5
320 -255
321 -250
322 -255
323 -250
324 -260
325 -272.5
326 -280
327 -292.5
328 -292.5
329 -300
330 -297.5
331 -297.5
332 -307.5
333 -312.5
334 -310
335 -307.5
336 -312.5
337 -300
338 -265
339 -240
340 -197.5
341 -117.5
342 -32.5
343 72.5
344 185
345 285
346 370
347 407.5
348 417.5
349 395
350 345
351 262.5
352 142.5
353 7.5
354 -140
355 -282.5
356 -392.5
357 -467.5
358 -525
359 -555
360 -562.5
361 -552.5
362 -520
363 -482.5
364 -435
365 -390
366 -340
367 -307.5
368 -277.5
369 -235
370 -227.5
371 -225
372 -220
373 -227.5
374 -217.5
375 -215
376 -225
377 -227.5
378 -232.5
379 -242.5
380 -242.5
381 -230
382 -222.5
383 -220
384 -227.5
385 -240
386 -247.5
387 -255
388 -260
389 -255
390 -255
391 -262.5
392 -270
393 -282.5
394 -292.5
395 -297.5
396 -300
397 -297.5
398 -302.5
399 -310
400 -305
401 -310
402 -312.5
403 -310
404 -320
405 -322.5
406 -330
407 -342.5
408 -347.5
409 -360
410 -375
411 -380
412 -385
413 -385
414 -380
415 -382.5
416 -377.5
417 -370
418 -367.5
419 -360
420 -345
421 -345
422 -347.5
423 -355
424 -365
425 -370
426 -380
427 -395
428 -402.5
429 -412.5
430 -425
431 -422.5
432 -415
433 -405
434 -392.5
435 -390
436 -390
437 -385
438 -380
439 -377.5
440 -385
441 -395
442 -405
443 -410
444 -405
445 -392.5
446 -382.5
447 -367.5
448 -362.5
449 -360
450 -352.5
451 -350
452 -345
453 -335
454 -335
455 -337.5
456 -340
457 -347.5
458 -345
459 -345
460 -345
461 -352.5
462 -360
463 -365
464 -385
465 -390
466 -395
467 -400
468 -395
469 -397.5
470 -392.5
471 -392.5
472 -395
473 -397.5
474 -397.5
475 -397.5
476 -392.5
477 -380
478 -375
479 -375
480 -370
481 -365
482 -370
483 -367.5
484 -365
485 -362.5
486 -357.5
487 -360
488 -367.5
489 -362.5
490 -362.5
491 -362.5
492 -350
493 -357.5
494 -360
495 -357.5
496 -380
497 -390
498 -395
499 -412.5
500 -417.5
501 -422.5
502 -432.5
503 -437.5
504 -440
505 -452.5
506 -460
507 -460
508 -467.5
509 -467.5
510 -470
511 -485
512 -477.5
513 -462.5
514 -460
515 -442.5
516 -437.5
517 -452.5
518 -450
519 -447.5
520 -440
521 -425
522 -422.5
523 -437.5
524 -440
525 -442.5
526 -442.5
527 -420
528 -415
529 -422.5
530 -415
531 -427.5
532 -435
533 -420
534 -412.5
535 -410
536 -402.5
537 -417.5
538 -437.5
539 -450
540 -460
541 -460
542 -445
543 -445
544 -452.5
545 -460
546 -470
547 -472.5
548 -457.5
549 -437.5
550 -425
551 -412.5
552 -412.5
553 -420
554 -425
555 -430
556 -432.5
557 -432.5
558 -425
559 -430
560 -432.5
561 -427.5
562 -435
563 -430
564 -417.5
565 -412.5
566 -400
567 -382.5
568 -370
569 -360
570 -357.5
571 -355
572 -345
573 -347.5
574 -340
575 -320
576 -307.5
577 -297.5
578 -295
579 -282.5
580 -255
581 -247.5
582 -232.5
583 -212.5
584 -215
585 -212.5
586 -205
587 -205
588 -197.5
589 -202.5
590 -215
591 -220
592 -225
593 -232.5
594 -232.5
595 -242.5
596 -260
597 -285
598 -310
599 -337.5
600 -365
601 -385
602 -407.5
603 -425
604 -447.5
605 -465
606 -480
607 -502.5
608 -510
609 -497.5
610 -495
611 -490
612 -490
613 -495
614 -485
615 -492.5
616 -485
617 -465
618 -457.5
619 -455
620 -467.5
621 -475
622 -480
623 -485
624 -480
625 -470
626 -457.5
627 -455
628 -457.5
629 -460
630 -452.5
631 -440
632 -447.5
633 -447.5
634 -450
635 -467.5
636 -477.5
637 -485
638 -487.5
639 -490
640 -490
641 -470
642 -432.5
643 -387.5
644 -335
645 -257.5
646 -157.5
647 -67.5
648 27.5
649 125
650 192.5
651 232.5
652 237.5
653 215
654 170
655 80
656 -32.5
657 -150
658 -285
659 -397.5
660 -497.5
661 -575
662 -615
663 -635
664 -630
665 -610
666 -577.5
667 -545
668 -515
669 -482.5
670 -457.5
671 -442.5
672 -432.5
673 -432.5
674 -432.5
675 -430
676 -425
677 -407.5
678 -390
679 -382.5
680 -372.5
681 -355
682 -347.5
683 -340
684 -337.5
685 -332.5
686 -342.5
687 -357.5
688 -377.5
689 -410
690 -427.5
691 -432.5
692 -420
693 -402.5
694 -390
695 -367.5
696 -355
697 -345
698 -325
699 -305
700 -287.5
701 -287.5
702 -300
703 -315
704 -330
705 -337.5
706 -342.5
707 -342.5
708 -332.5
709 -330
710 -312.5
711 -302.5
712 -290
713 -275
714 -270
715 -275
716 -285
717 -287.5
718 -295
719 -302.5
720 -310
721 -320
722 -320
723 -320
724 -315
725 -307.5
726 -295
727 -287.5
728 -272.5
729 -260
730 -250
731 -232.5
732 -220
733 -220
734 -212.5
735 -200
736 -197.5
737 -192.5
738 -195
739 -200
740 -200
741 -210
742 -210
743 -207.5
744 -212.5
745 -210
746 -212.5
747 -215
748 -215
749 -220
750 -215
751 -205
752 -202.5
753 -190
754 -185
755 -187.5
756 -177.5
757 -167.5
758 -155
759 -152.5
760 -147.5
761 -157.5
762 -175
763 -172.5
764 -182.5
765 -182.5
766 -180
767 -192.5
768 -175
769 -170
770 -165
771 -145
772 -140
773 -132.5
774 -127.5
775 -125
776 -107.5
777 -102.5
778 -102.5
779 -100
780 -102.5
781 -107.5
782 -105
783 -110
784 -112.5
785 -110
786 -112.5
787 -112.5
788 -107.5
789 -102.5
790 -92.5
791 -87.5
792 -87.5
793 -75
794 -72.5
795 -77.5
796 -75
797 -87.5
798 -110
799 -117.5
800 -117.5
801 -115
802 -102.5
803 -105
804 -105
805 -100
806 -112.5
807 -105
808 -95
809 -102.5
810 -110
811 -127.5
812 -145
813 -152.5
814 -165
815 -160
816 -155
817 -150
818 -145
819 -147.5
820 -132.5
821 -117.5
822 -107.5
823 -92.5
824 -82.5
825 -82.5
826 -82.5
827 -85
828 -87.5
829 -82.5
830 -92.5
831 -92.5
832 -95
833 -105
834 -97.5
835 -95
836 -95
837 -80
838 -72.5
839 -67.5
840 -60
841 -62.5
842 -70
843 -70
844 -80
845 -92.5
846 -87.5
847 -87.5
848 -87.5
849 -77.5
850 -75
851 -67.5
852 -57.5
853 -52.5
854 -40
855 -32.5
856 -27.5
857 -27.5
858 -32.5
859 -25
860 -25
861 -22.5
862 -10
863 -7.5
864 -5
865 -5
866 -15
867 -12.5
868 -15
869 -27.5
870 -25
871 -27.5
872 -37.5
873 -37.5
874 -30
875 -17.5
876 -5
877 2.5
878 20
879 35
880 45
881 55
882 65
883 75
884 67.5
885 57.5
886 52.5
887 60
888 80
889 107.5
890 142.5
891 182.5
892 220
893 250
894 287.5
895 317.5
896 332.5
897 337.5
898 337.5
899 312.5
900 282.5
901 262.5
902 232.5
903 202.5
904 185
905 160
906 152.5
907 140
908 115
909 120
910 107.5
911 85
912 77.5
913 57.5
914 47.5
915 45
916 47.5
917 47.5
918 45
919 42.5
920 40
921 42.5
922 37.5
923 40
924 40
925 37.5
926 30
927 25
928 17.5
929 5
930 5
931 5
932 7.5
933 17.5
934 15
935 25
936 25
937 22.5
938 27.5
939 22.5
940 12.5
941 -7.5
942 -30
943 -45
944 -70
945 -77.5
946 -75
947 -75
948 -57.5
949 -35
950 -2.5
951 42.5
952 95
953 165
954 247.5
955 335
956 417.5
957 507.5
958 570
959 605
960 630
961 620
962 595
963 550
964 462.5
965 357.5
966 227.5
967 97.5
968 -5
969 -87.5
970 -132.5
971 -162.5
972 -177.5
973 -182.5
974 -175
975 -152.5
976 -115
977 -70
978 -30
979 0
980 15
981 35
982 50
983 55
984 70
985 82.5
986 87.5
987 95
988 97.5
989 100
990 100
991 95
992 90
993 87.5
994 90
995 102.5
996 117.5
997 137.5
998 160
999 177.5
1000 195
1001 202.5
1002 217.5
1003 237.5
1004 245
1005 255
1006 242.5
1007 222.5
1008 210
1009 202.5
1010 207.5
1011 217.5
1012 227.5
1013 227.5
1014 237.5
1015 252.5
1016 270
1017 290
1018 297.5
1019 297.5
1020 295
1021 292.5
1022 305
1023 320
1024 340
1025 355
1026 360
1027 372.5
1028 382.5
1029 395
1030 415
1031 420
1032 427.5
1033 427.5
1034 417.5
1035 412.5
1036 410
1037 422.5
1038 427.5
1039 432.5
1040 430
1041 422.5
1042 422.5
1043 420
1044 425
1045 435
1046 447.5
1047 450
1048 457.5
1049 470
1050 477.5
1051 497.5
1052 512.5
1053 520
1054 530
1055 527.5
1056 517.5
1057 510
1058 500
1059 490
1060 490
1061 482.5
1062 480
1063 492.5
1064 502.5
1065 510
1066 522.5
1067 535
1068 535
1069 522.5
1070 517.5
1071 512.5
1072 507.5
1073 500
1074 495
1075 497.5
1076 482.5
1077 472.5
1078 480
1079 482.5
1080 485
1081 510
1082 522.5
1083 532.5
1084 550
1085 550
1086 565
1087 575
1088 575
1089 597.5
1090 607.5
1091 612.5
1092 617.5
1093 600
1094 587.5
1095 575
1096 570
1097 582.5
1098 582.5
1099 585
1100 582.5
1101 572.5
1102 572.5
1103 575
1104 582.5
1105 582.5
1106 577.5
1107 557.5
1108 545
1109 542.5
1110 530
1111 527.5
1112 520
1113 505
1114 500
1115 500
1116 500
1117 505
1118 507.5
1119 510
1120 515
1121 530
1122 532.5
1123 537.5
1124 542.5
1125 532.5
1126 527.5
1127 525
1128 522.5
1129 525
1130 522.5
1131 512.5
1132 510
1133 497.5
1134 485
1135 492.5
1136 495
1137 507.5
1138 522.5
1139 532.5
1140 545
1141 547.5
1142 552.5
1143 570
1144 577.5
1145 577.5
1146 580
1147 577.5
1148 565
1149 547.5
1150 550
1151 550
1152 547.5
1153 562.5
1154 575
1155 580
1156 595
1157 590
1158 597.5
1159 610
1160 592.5
1161 597.5
1162 607.5
1163 587.5
1164 580
1165 572.5
1166 557.5
1167 562.5
1168 562.5
1169 565
1170 582.5
1171 582.5
1172 575
1173 572.5
1174 567.5
1175 557.5
1176 560
1177 552.5
1178 545
1179 540
1180 515
1181 515
1182 530
1183 550
1184 580
1185 602.5
1186 612.5
1187 620
1188 617.5
1189 622.5
1190 640
1191 647.5
1192 655
1193 665
1194 665
1195 680
1196 690
1197 715
1198 740
1199 745
1200 755
1201 760
1202 760
1203 765
1204 762.5
1205 750
1206 740
1207 720
1208 697.5
1209 682.5
1210 650
1211 612.5
1212 575
1213 537.5
1214 505
1215 470
1216 430
1217 405
1218 375
1219 347.5
1220 345
1221 332.5
1222 325
1223 307.5
1224 290
1225 287.5
1226 275
1227 267.5
1228 262.5
1229 247.5
1230 227.5
1231 220
1232 215
1233 210
1234 217.5
1235 212.5
1236 207.5
1237 212.5
1238 207.5
1239 220
1240 225
1241 230
1242 237.5
1243 242.5
1244 245
1245 240
1246 235
1247 212.5
1248 195
1249 172.5
1250 150
1251 140
1252 10
1253 -7.5
1254 -32.5
1255 -45
1256 -47.5
1257 -57.5
1258 -62.5
1259 -67.5
1260 -70
1261 -62.5
1262 -77.5
1263 -82.5
1264 -77.5
1265 -97.5
1266 -102.5
1267 -100
1268 -105
1269 -105
1270 -107.5
1271 -102.5
1272 -100
1273 -97.5
1274 -85
1275 -80
1276 -72.5
1277 -75
1278 -92.5
1279 -107.5
1280 -135
1281 -162.5
1282 -177.5
1283 -195
1284 -210
1285 -215
1286 -222.5
1287 -222.5
1288 -205
1289 -187.5
1290 -145
1291 -85
1292 -17.5
1293 60
1294 145
1295 227.5
1296 280
1297 302.5
1298 300
1299 295
1300 255
1301 185
1302 117.5
1303 17.5
1304 -92.5
1305 -197.5
1306 -282.5
1307 -335
1308 -380
1309 -410
1310 -430
1311 -432.5
1312 -430
1313 -420
1314 -397.5
1315 -385
1316 -380
1317 -365
1318 -342.5
1319 -332.5
1320 -305
1321 -282.5
1322 -282.5
1323 -270
1324 -275
1325 -275
1326 -270
1327 -275
1328 -285
1329 -292.5
1330 -292.5
1331 -295
1332 -290
1333 -290
1334 -297.5
1335 -297.5
1336 -300
1337 -292.5
1338 -287.5
1339 -280
1340 -280
1341 -297.5
1342 -305
1343 -320
1344 -330
1345 -317.5
1346 -317.5
1347 -310
1348 -297.5
1349 -307.5
1350 -310
1351 -302.5
1352 -300
1353 -287.5
1354 -277.5
1355 -280
1356 -280
1357 -290
1358 -302.5
1359 -307.5
1360 -310
1361 -310
1362 -312.5
1363 -307.5
1364 -307.5
1365 -302.5
1366 -292.5
1367 -292.5
1368 -282.5
1369 -272.5
1370 -260
1371 -252.5
1372 -250
1373 -245
1374 -242.5
1375 -237.5
1376 -230
1377 -230
1378 -227.5
1379 -230
1380 -235
1381 -235
1382 -237.5
1383 -242.5
1384 -250
1385 -260
1386 -257.5
1387 -252.5
1388 -255
1389 -255
1390 -250
1391 -245
1392 -237.5
1393 -227.5
1394 -217.5
1395 -205
1396 -207.5
1397 -197.5
1398 -192.5
1399 -192.5
1400 -182.5
1401 -182.5
1402 -180
1403 -175
1404 -170
1405 -167.5
1406 -162.5
1407 -165
1408 -175
1409 -165
1410 -170
1411 -172.5
1412 -165
1413 -162.5
1414 -162.5
1415 -165
1416 -172.5
1417 -175
1418 -167.5
1419 -170
1420 -167.5
1421 -160
1422 -160
1423 -157.5
1424 -152.5
1425 -145
1426 -135
1427 -120
1428 -112.5
1429 -105
1430 -100
1431 -105
1432 -100
1433 -107.5
1434 -117.5
1435 -127.5
1436 -142.5
1437 -152.5
1438 -160
1439 -170
1440 -175
1441 -175
1442 -177.5
1443 -177.5
1444 -172.5
1445 -165
1446 -160
1447 -160
1448 -157.5
1449 -152.5
1450 -152.5
1451 -157.5
1452 -165
1453 -172.5
1454 -172.5
1455 -180
1456 -172.5
1457 -170
1458 -182.5
1459 -190
1460 -207.5
1461 -210
1462 -207.5
1463 -207.5
1464 -207.5
1465 -217.5
1466 -220
1467 -217.5
1468 -215
1469 -200
1470 -185
1471 -177.5
1472 -167.5
1473 -155
1474 -152.5
1475 -157.5
1476 -165
1477 -172.5
1478 -175
1479 -182.5
1480 -185
1481 -182.5
1482 -187.5
1483 -192.5
1484 -195
1485 -187.5
1486 -190
1487 -190
1488 -190
1489 -187.5
1490 -190
1491 -192.5
1492 -182.5
1493 -177.5
1494 -177.5
1495 -170
1496 -160
1497 -147.5
1498 -142.5
1499 -145
1500 -155
1501 -175
1502 -200
1503 -215
1504 -215
1505 -215
1506 -212.5
1507 -205
1508 -202.5
1509 -195
1510 -180
1511 -157.5
1512 -142.5
1513 -132.5
1514 -130
1515 -125
1516 -112.5
1517 -117.5
1518 -115
1519 -105
1520 -90
1521 -77.5
1522 -57.5
1523 -32.5
1524 -10
1525 -5
1526 -5
1527 7.5
1528 15
1529 25
1530 40
1531 52.5
1532 62.5
1533 65
1534 70
1535 67.5
1536 72.5
1537 65
1538 52.5
1539 42.5
1540 5
1541 -15
1542 -37.5
1543 -62.5
1544 -72.5
1545 -87.5
1546 -105
1547 -115
1548 -130
1549 -147.5
1550 -160
1551 -177.5
1552 -210
1553 -225
1554 -245
1555 -272.5
1556 -275
1557 -282.5
1558 -290
1559 -285
1560 -295
1561 -297.5
1562 -292.5
1563 -290
1564 -285
1565 -280
1566 -272.5
1567 -267.5
1568 -267.5
1569 -265
1570 -267.5
1571 -255
1572 -250
1573 -255
1574 -250
1575 -260
1576 -272.5
1577 -280
1578 -292.5
1579 -292.5
1580 -300
1581 -297.5
1582 -297.5
1583 -307.5
1584 -312.5
1585 -310
1586 -307.5
1587 -312.5
1588 -300
1589 -265
1590 -240
1591 -197.5
1592 -117.5
1593 -32.5
1594 72.5
1595 185
1596 285
1597 370
1598 407.5
1599 417.5
1600 395
1601 345
1602 262.5
1603 142.5
1604 7.5
1605 -140
1606 -282.5
1607 -392.5
1608 -467.5
1609 -525
1610 -555
1611 -562.5
1612 -552.5
1613 -520
1614 -482.5
1615 -435
1616 -390
1617 -340
1618 -307.5
1619 -277.5
1620 -235
1621 -227.5
1622 -225
1623 -220
1624 -227.5
1625 -217.5
1626 -215
1627 -225
1628 -227.5
1629 -232.5
1630 -242.5
1631 -242.5
1632 -230
1633 -222.5
1634 -220
1635 -227.5
1636 -240
1637 -247.5
1638 -255
1639 -260
1640 -255
1641 -255
1642 -262.5
1643 -270
1644 -282.5
1645 -292.5
1646 -297.5
1647 -300
1648 -297.5
1649 -302.5
1650 -310
1651 -305
1652 -310
1653 -312.5
1654 -310
1655 -320
1656 -322.5
1657 -330
1658 -342.5
1659 -347.5
1660 -360
1661 -375
1662 -380
1663 -385
1664 -385
1665 -380
1666 -382.5
1667 -377.5
1668 -370
1669 -367.5
1670 -360
1671 -345
1672 -345
1673 -347.5
1674 -355
1675 -365
1676 -370
1677 -380
1678 -395
1679 -402.5
1680 -412.5
1681 -425
1682 -422.5
1683 -415
1684 -405
1685 -392.5
1686 -390
1687 -390
1688 -385
1689 -380
1690 -377.5
1691 -385
1692 -395
1693 -405
1694 -410
1695 -405
1696 -392.5
1697 -382.5
1698 -367.5
1699 -362.5
1700 -360
1701 -352.5
1702 -350
1703 -345
1704 -335
1705 -335
1706 -337.5
1707 -340
1708 -347.5
1709 -345
1710 -345
1711 -345
1712 -352.5
1713 -360
1714 -365
1715 -385
1716 -390
1717 -395
1718 -400
1719 -395
1720 -397.5
1721 -392.5
1722 -392.5
1723 -395
1724 -397.5
1725 -397.5
1726 -397.5
1727 -392.5
1728 -380
1729 -375
1730 -375
1731 -370
1732 -365
1733 -370
1734 -367.5
1735 -365
1736 -362.5
1737 -357.5
1738 -360
1739 -367.5
1740 -362.5
1741 -362.5
1742 -362.5
1743 -350
1744 -357.5
1745 -360
1746 -357.5
1747 -380
1748 -390
1749 -395
1750 -412.5
1751 -417.5
1752 -422.5
1753 -432.5
1754 -437.5
1755 -440
1756 -452.5
1757 -460
1758 -460
1759 -467.5
1760 -467.5
1761 -470
1762 -485
1763 -477.5
1764 -462.5
1765 -460
1766 -442.5
1767 -437.5
1768 -452.5
1769 -450
1770 -447.5
1771 -440
1772 -425
1773 -422.5
1774 -437.5
1775 -440
1776 -442.5
1777 -442.5
1778 -420
1779 -415
1780 -422.5
1781 -415
1782 -427.5
1783 -435
1784 -420
1785 -412.5
1786 -410
1787 -402.5
1788 -417.5
1789 -437.5
1790 -450
1791 -460
1792 -460
1793 -445
1794 -445
1795 -452.5
1796 -460
1797 -470
1798 -472.5
1799 -457.5
1800 -437.5
1801 -425
1802 -412.5
1803 -412.5
1804 -420
1805 -425
1806 -430
1807 -432.5
1808 -432.5
1809 -425
1810 -430
1811 -432.5
1812 -427.5
1813 -435
1814 -430
1815 -417.5
1816 -412.5
1817 -400
1818 -382.5
1819 -370
1820 -360
1821 -357.5
1822 -355
1823 -345
1824 -347.5
1825 -340
1826 -320
1827 -307.5
1828 -297.5
1829 -295
1830 -282.5
1831 -255
1832 -247.5
1833 -232.5
1834 -212.5
1835 -215
1836 -212.5
1837 -205
1838 -205
1839 -197.5
1840 -202.5
1841 -215
1842 -220
1843 -225
1844 -232.5
1845 -232.5
1846 -242.5
1847 -260
1848 -285
1849 -310
1850 -337.5
1851 -365
1852 -385
1853 -407.5
1854 -425
1855 -447.5
1856 -465
1857 -480
1858 -502.5
1859 -510
1860 -497.5
1861 -495
1862 -490
1863 -490
1864 -495
1865 -485
1866 -492.5
1867 -485
1868 -465
1869 -457.5
1870 -455
1871 -467.5
1872 -475
1873 -480
1874 -485
1875 -480
1876 -470
1877 -457.5
1878 -455
1879 -457.5
1880 -460
1881 -452.5
1882 -440
1883 -447.5
1884 -447.5
1885 -450
1886 -467.5
1887 -477.5
1888 -485
1889 -487.5
1890 -490
1891 -490
1892 -470
1893 -432.5
1894 -387.5
1895 -335
1896 -257.5
1897 -157.5
1898 -67.5
1899 27.5
1900 125
1901 192.5
1902 232.5
1903 237.5
1904 215
1905 170
1906 80
1907 -32.5
1908 -150
1909 -285
1910 -397.5
1911 -497.5
1912 -575
1913 -615
1914 -635
1915 -630
1916 -610
1917 -577.5
1918 -545
1919 -515
1920 -482.5
1921 -457.5
1922 -442.5
1923 -432.5
1924 -432.5
1925 -432.5
1926 -430
1927 -425
1928 -407.5
1929 -390
1930 -382.5
1931 -372.5
1932 -355
1933 -347.5
1934 -340
1935 -337.5
1936 -332.5
1937 -342.5
1938 -357.5
1939 -377.5
1940 -410
1941 -427.5
1942 -432.5
1943 -420
1944 -402.5
1945 -390
1946 -367.5
1947 -355
1948 -345
1949 -325
1950 -305
1951 -287.5
1952 -287.5
1953 -300
1954 -315
1955 -330
1956 -337.5
1957 -342.5
1958 -342.5
1959 -332.5
1960 -330
1961 -312.5
1962 -302.5
1963 -290
1964 -275
1965 -270
1966 -275
1967 -285
1968 -287.5
1969 -295
1970 -302.5
1971 -310
1972 -320
1973 -320
1974 -320
1975 -315
1976 -307.5
1977 -295
1978 -287.5
1979 -272.5
1980 -260
1981 -250
1982 -232.5
1983 -220
1984 -220
1985 -212.5
1986 -200
1987 -197.5
1988 -192.5
1989 -195
1990 -200
1991 -200
1992 -210
1993 -210
1994 -207.5
1995 -212.5
1996 -210
1997 -212.5
1998 -215
1999 -215
2000 -220
2001 -215
2002 -205
2003 -202.5
2004 -190
2005 -185
2006 -187.5
2007 -177.5
2008 -167.5
2009 -155
2010 -152.5
2011 -147.5
2012 -157.5
2013 -175
2014 -172.5
2015 -182.5
2016 -182.5
2017 -180
2018 -192.5
2019 -175
2020 -170
2021 -165
2022 -145
2023 -140
2024 -132.5
2025 -127.5
2026 -125
2027 -107.5
2028 -102.5
2029 -102.5
2030 -100
2031 -102.5
2032 -107.5
2033 -105
2034 -110
2035 -112.5
2036 -110
2037 -112.5
2038 -112.5
2039 -107.5
2040 -102.5
2041 -92.5
2042 -87.5
2043 -87.5
2044 -75
2045 -72.5
2046 -77.5
2047 -75
2048 -87.5
2049 -110
2050 -117.5
2051 -117.5
2052 -115
2053 -102.5
2054 -105
2055 -105
2056 -100
2057 -112.5
2058 -105
2059 -95
2060 -102.5
2061 -110
2062 -127.5
2063 -145
2064 -152.5
2065 -165
2066 -160
2067 -155
2068 -150
2069 -145
2070 -147.5
2071 -132.5
2072 -117.5
2073 -107.5
2074 -92.5
2075 -82.5
2076 -82.5
2077 -82.5
2078 -85
2079 -87.5
2080 -82.5
2081 -92.5
2082 -92.5
2083 -95
2084 -105
2085 -97.5
2086 -95
2087 -95
2088 -80
2089 -72.5
2090 -67.5
2091 -60
2092 -62.5
2093 -70
2094 -70
2095 -80
2096 -92.5
2097 -87.5
2098 -87.5
2099 -87.5
2100 -77.5
2101 -75
2102 -67.5
2103 -57.5
2104 -52.5
2105 -40
2106 -32.5
2107 -27.5
2108 -27.5
2109 -32.5
2110 -25
2111 -25
2112 -22.5
2113 -10
2114 -7.5
2115 -5
2116 -5
2117 -15
2118 -12.5
2119 -15
2120 -27.5
2121 -25
2122 -27.5
2123 -37.5
2124 -37.5
2125 -30
2126 -17.5
2127 -5
2128 2.5
2129 20
2130 35
2131 45
2132 55
2133 65
2134 75
2135 67.5
2136 57.5
2137 52.5
2138 60
2139 80
2140 107.5
2141 142.5
2142 182.5
2143 220
2144 250
2145 287.5
2146 317.5
2147 332.5
2148 337.5
2149 337.5
2150 312.5
2151 282.5
2152 262.5
2153 232.5
2154 202.5
2155 185
2156 160
2157 152.5
2158 140
2159 115
2160 120
2161 107.5
2162 85
2163 77.5
2164 57.5
2165 47.5
2166 45
2167 47.5
2168 47.5
2169 45
2170 42.5
2171 40
2172 42.5
2173 37.5
2174 40
2175 40
2176 37.5
2177 30
2178 25
2179 17.5
2180 5
2181 5
2182 5
2183 7.5
2184 17.5
2185 15
2186 25
2187 25
2188 22.5
2189 27.5
2190 22.5
2191 12.5
2192 -7.5
2193 -30
2194 -45
2195 -70
2196 -77.5
2197 -75
2198 -75
2199 -57.5
2200 -35
2201 -2.5
2202 42.5
2203 95
2204 165
2205 247.5
2206 335
2207 417.5
2208 507.5
2209 570
2210 605
2211 630
2212 620
2213 595
2214 550
2215 462.5
2216 357.5
2217 227.5
2218 97.5
2219 -5
2220 -87.5
2221 -132.5
2222 -162.5
2223 -177.5
2224 -182.5
2225 -175
2226 -152.5
2227 -115
2228 -70
2229 -30
2230 0
2231 15
2232 35
2233 50
2234 55
2235 70
2236 82.5
2237 87.5
2238 95
2239 97.5
2240 100
2241 100
2242 95
2243 90
2244 87.5
2245 90
2246 102.5
2247 117.5
2248 137.5
2249 160
2250 177.5
2251 195
2252 202.5
2253 217.5
2254 237.5
2255 245
2256 255
2257 242.5
2258 222.5
2259 210
2260 202.5
2261 207.5
2262 217.5
2263 227.5
2264 227.5
2265 237.5
2266 252.5
2267 270
2268 290
2269 297.5
2270 297.5
2271 295
2272 292.5
2273 305
2274 320
2275 340
2276 355
2277 360
2278 372.5
2279 382.5
2280 395
2281 415
2282 420
2283 427.5
2284 427.5
2285 417.5
2286 412.5
2287 410
2288 422.5
2289 427.5
2290 432.5
2291 430
2292 422.5
2293 422.5
2294 420
2295 425
2296 435
2297 447.5
2298 450
2299 457.5
2300 470
2301 477.5
2302 497.5
2303 512.5
2304 520
2305 530
2306 527.5
2307 517.5
2308 510
2309 500
2310 490
2311 490
2312 482.5
2313 480
2314 492.5
2315 502.5
2316 510
2317 522.5
2318 535
2319 535
2320 522.5
2321 517.5
2322 512.5
2323 507.5
2324 500
2325 495
2326 497.5
2327 482.5
2328 472.5
2329 480
2330 482.5
2331 485
2332 510
2333 522.5
2334 532.5
2335 550
2336 550
2337 565
2338 575
2339 575
2340 597.5
2341 607.5
2342 612.5
2343 617.5
2344 600
2345 587.5
2346 575
2347 570
2348 582.5
2349 582.5
2350 585
2351 582.5
2352 572.5
2353 572.5
2354 575
2355 582.5
2356 582.5
2357 577.5
2358 557.5
2359 545
2360 542.5
2361 530
2362 527.5
2363 520
2364 505
2365 500
2366 500
2367 500
2368 505
2369 507.5
2370 510
2371 515
2372 530
2373 532.5
2374 537.5
2375 542.5
2376 532.5
2377 527.5
2378 525
2379 522.5
2380 525
2381 522.5
2382 512.5
2383 510
2384 497.5
2385 485
2386 492.5
2387 495
2388 507.5
2389 522.5
2390 532.5
2391 545
2392 547.5
2393 552.5
2394 570
2395 577.5
2396 577.5
2397 580
2398 577.5
2399 565
2400 547.5
2401 550
2402 550
2403 547.5
2404 562.5
2405 575
2406 580
2407 595
2408 590
2409 597.5
2410 610
2411 592.5
2412 597.5
2413 607.5
2414 587.5
2415 580
2416 572.5
2417 557.5
2418 562.5
2419 562.5
2420 565
2421 582.5
2422 582.5
2423 575
2424 572.5
2425 567.5
2426 557.5
2427 560
2428 552.5
2429 545
2430 540
2431 515
2432 515
2433 530
2434 550
2435 580
2436 602.5
2437 612.5
2438 620
2439 617.5
2440 622.5
2441 640
2442 647.5
2443 655
2444 665
2445 665
2446 680
2447 690
2448 715
2449 740
2450 745
2451 755
2452 760
2453 760
2454 765
2455 762.5
2456 750
2457 740
2458 720
2459 697.5
2460 682.5
2461 650
2462 612.5
2463 575
2464 537.5
2465 505
2466 470
2467 430
2468 405
2469 375
2470 347.5
2471 345
2472 332.5
2473 325
2474 307.5
2475 290
2476 287.5
2477 275
2478 267.5
2479 262.5
2480 247.5
2481 227.5
2482 220
2483 215
2484 210
2485 217.5
2486 212.5
2487 207.5
2488 212.5
2489 207.5
2490 220
2491 225
2492 230
2493 237.5
2494 242.5
2495 245
2496 240
2497 235
2498 212.5
2499 195
2500 172.5
2501 150
2502 140
2503 10
2504 -7.5
2505 -32.5
2506 -45
2507 -47.5
2508 -57.5
2509 -62.5
2510 -67.5
2511 -70
2512 -62.5
2513 -77.5
2514 -82.5
2515 -77.5
2516 -97.5
2517 -102.5
2518 -100
2519 -105
2520 -105
2521 -107.5
2522 -102.5
2523 -100
2524 -97.5
2525 -85
2526 -80
2527 -72.5
2528 -75
2529 -92.5
2530 -107.5
2531 -135
2532 -162.5
2533 -177.5
2534 -195
2535 -210
2536 -215
2537 -222.5
2538 -222.5
2539 -205
2540 -187.5
2541 -145
2542 -85
2543 -17.5
2544 60
2545 145
2546 227.5
2547 280
2548 302.5
2549 300
2550 295
2551 255
2552 185
2553 117.5
2554 17.5
2555 -92.5
2556 -197.5
2557 -282.5
2558 -335
2559 -380
2560 -410
2561 -430
2562 -432.5
2563 -430
2564 -420
2565 -397.5
2566 -385
2567 -380
2568 -365
2569 -342.5
2570 -332.5
2571 -305
2572 -282.5
2573 -282.5
2574 -270
2575 -275
2576 -275
2577 -270
2578 -275
2579 -285
2580 -292.5
2581 -292.5
2582 -295
2583 -290
2584 -290
2585 -297.5
2586 -297.5
2587 -300
2588 -292.5
2589 -287.5
2590 -280
2591 -280
2592 -297.5
2593 -305
2594 -320
2595 -330
2596 -317.5
2597 -317.5
2598 -310
2599 -297.5
2600 -307.5
2601 -310
2602 -302.5
2603 -300
2604 -287.5
2605 -277.5
2606 -280
2607 -280
2608 -290
2609 -302.5
2610 -307.5
2611 -310
2612 -310
2613 -312.5
2614 -307.5
2615 -307.5
2616 -302.5
2617 -292.5
2618 -292.5
2619 -282.5
2620 -272.5
2621 -260
2622 -252.5
2623 -250
2624 -245
2625 -242.5
2626 -237.5
2627 -230
2628 -230
2629 -227.5
2630 -230
2631 -235
2632 -235
2633 -237.5
2634 -242.5
2635 -250
2636 -260
2637 -257.5
2638 -252.5
2639 -255
2640 -255
2641 -250
2642 -245
2643 -237.5
2644 -227.5
2645 -217.5
2646 -205
2647 -207.5
2648 -197.5
2649 -192.5
2650 -192.5
2651 -182.5
2652 -182.5
2653 -180
2654 -175
2655 -170
2656 -167.5
2657 -162.5
2658 -165
2659 -175
2660 -165
2661 -170
2662 -172.5
2663 -165
2664 -162.5
2665 -162.5
2666 -165
2667 -172.5
2668 -175
2669 -167.5
2670 -170
2671 -167.5
2672 -160
2673 -160
2674 -157.5
2675 -152.5
2676 -145
2677 -135
2678 -120
2679 -112.5
2680 -105
2681 -100
2682 -105
2683 -100
2684 -107.5
2685 -117.5
2686 -127.5
2687 -142.5
2688 -152.5
2689 -160
2690 -170
2691 -175
2692 -175
2693 -177.5
2694 -177.5
2695 -172.5
2696 -165
2697 -160
2698 -160
2699 -157.5
2700 -152.5
2701 -152.5
2702 -157.5
2703 -165
2704 -172.5
2705 -172.5
2706 -180
2707 -172.5
2708 -170
2709 -182.5
2710 -190
2711 -207.5
2712 -210
2713 -207.5
2714 -207.5
2715 -207.5
2716 -217.5
2717 -220
2718 -217.5
2719 -215
2720 -200
2721 -185
2722 -177.5
2723 -167.5
2724 -155
2725 -152.5
2726 -157.5
2727 -165
2728 -172.5
2729 -175
2730 -182.5
2731 -185
2732 -182.5
2733 -187.5
2734 -192.5
2735 -195
2736 -187.5
2737 -190
2738 -190
2739 -190
2740 -187.5
2741 -190
2742 -192.5
2743 -182.5
2744 -177.5
2745 -177.5
2746 -170
2747 -160
2748 -147.5
2749 -142.5
2750 -145
2751 -155
2752 -175
2753 -200
2754 -215
2755 -215
2756 -215
2757 -212.5
2758 -205
2759 -202.5
2760 -195
2761 -180
2762 -157.5
2763 -142.5
2764 -132.5
2765 -130
2766 -125
2767 -112.5
2768 -117.5
2769 -115
2770 -105
2771 -90
2772 -77.5
2773 -57.5
2774 -32.5
2775 -10
2776 -5
2777 -5
2778 7.5
2779 15
2780 25
2781 40
2782 52.5
2783 62.5
2784 65
2785 70
2786 67.5
2787 72.5
2788 65
2789 52.5
2790 42.5
2791 5
2792 -15
2793 -37.5
2794 -62.5
2795 -72.5
2796 -87.5
2797 -105
2798 -115
2799 -130
2800 -147.5
2801 -160
2802 -177.5
2803 -210
2804 -225
2805 -245
2806 -272.5
2807 -275
2808 -282.5
2809 -290
2810 -285
2811 -295
2812 -297.5
2813 -292.5
2814 -290
2815 -285
2816 -280
2817 -272.5
2818 -267.5
2819 -267.5
2820 -265
2821 -267.5
2822 -255
2823 -250
2824 -255
2825 -250
2826 -260
2827 -272.5
2828 -280
2829 -292.5
2830 -292.5
2831 -300
2832 -297.5
2833 -297.5
2834 -307.5
2835 -312.5
2836 -310
2837 -307.5
2838 -312.5
2839 -300
2840 -265
2841 -240
2842 -197.5
2843 -117.5
2844 -32.5
2845 72.5
2846 185
2847 285
2848 370
2849 407.5
2850 417.5
2851 395
2852 345
2853 262.5
2854 142.5
2855 7.5
2856 -140
2857 -282.5
2858 -392.5
2859 -467.5
2860 -525
2861 -555
2862 -562.5
2863 -552.5
2864 -520
2865 -482.5
2866 -435
2867 -390
2868 -340
2869 -307.5
2870 -277.5
2871 -235
2872 -227.5
2873 -225
2874 -220
2875 -227.5
2876 -217.5
2877 -215
2878 -225
2879 -227.5
2880 -232.5
2881 -242.5
2882 -242.5
2883 -230
2884 -222.5
2885 -220
2886 -227.5
2887 -240
2888 -247.5
2889 -255
2890 -260
2891 -255
2892 -255
2893 -262.5
2894 -270
2895 -282.5
2896 -292.5
2897 -297.5
2898 -300
2899 -297.5
2900 -302.5
2901 -310
2902 -305
2903 -310
2904 -312.5
2905 -310
2906 -320
2907 -322.5
2908 -330
2909 -342.5
2910 -347.5
2911 -360
2912 -375
2913 -380
2914 -385
2915 -385
2916 -380
2917 -382.5
2918 -377.5
2919 -370
2920 -367.5
2921 -360
2922 -345
2923 -345
2924 -347.5
2925 -355
2926 -365
2927 -370
2928 -380
2929 -395
2930 -402.5
2931 -412.5
2932 -425
2933 -422.5
2934 -415
2935 -405
2936 -392.5
2937 -390
2938 -390
2939 -385
2940 -380
2941 -377.5
2942 -385
2943 -395
2944 -405
2945 -410
2946 -405
2947 -392.5
2948 -382.5
2949 -367.5
2950 -362.5
2951 -360
2952 -352.5
2953 -350
2954 -345
2955 -335
2956 -335
2957 -337.5
2958 -340
2959 -347.5
2960 -345
2961 -345
2962 -345
2963 -352.5
2964 -360
2965 -365
2966 -385
2967 -390
2968 -395
2969 -400
2970 -395
2971 -397.5
2972 -392.5
2973 -392.5
2974 -395
2975 -397.5
2976 -397.5
2977 -397.5
2978 -392.5
2979 -380
2980 -375
2981 -375
2982 -370
2983 -365
2984 -370
2985 -367.5
2986 -365
2987 -362.5
2988 -357.5
2989 -360
2990 -367.5
2991 -362.5
2992 -362.5
2993 -362.5
2994 -350
2995 -357.5
2996 -360
2997 -357.5
2998 -380
2999 -390
3000 -395
3001 -412.5
3002 -417.5
3003 -422.5
3004 -432.5
3005 -437.5
3006 -440
3007 -452.5
3008 -460
3009 -460
3010 -467.5
3011 -467.5
3012 -470
3013 -485
3014 -477.5
3015 -462.5
3016 -460
3017 -442.5
3018 -437.5
3019 -452.5
3020 -450
3021 -447.5
3022 -440
3023 -425
3024 -422.5
3025 -437.5
3026 -440
3027 -442.5
3028 -442.5
3029 -420
3030 -415
3031 -422.5
3032 -415
3033 -427.5
3034 -435
3035 -420
3036 -412.5
3037 -410
3038 -402.5
3039 -417.5
3040 -437.5
3041 -450
3042 -460
3043 -460
3044 -445
3045 -445
3046 -452.5
3047 -460
3048 -470
3049 -472.5
3050 -457.5
3051 -437.5
3052 -425
3053 -412.5
3054 -412.5
3055 -420
3056 -425
3057 -430
3058 -432.5
3059 -432.5
3060 -425
3061 -430
3062 -432.5
3063 -427.5
3064 -435
3065 -430
3066 -417.5
3067 -412.5
3068 -400
3069 -382.5
3070 -370
3071 -360
3072 -357.5
3073 -355
3074 -345
3075 -347.5
3076 -340
3077 -320
3078 -307.5
3079 -297.5
3080 -295
3081 -282.5
3082 -255
3083 -247.5
3084 -232.5
3085 -212.5
3086 -215
3087 -212.5
3088 -205
3089 -205
3090 -197.5
3091 -202.5
3092 -215
3093 -220
3094 -225
3095 -232.5
3096 -232.5
3097 -242.5
3098 -260
3099 -285
3100 -310
3101 -337.5
3102 -365
3103 -385
3104 -407.5
3105 -425
3106 -447.5
3107 -465
3108 -480
3109 -502.5
3110 -510
3111 -497.5
3112 -495
3113 -490
3114 -490
3115 -495
3116 -485
3117 -492.5
3118 -485
3119 -465
3120 -457.5
3121 -455
3122 -467.5
3123 -475
3124 -480
3125 -485
3126 -480
3127 -470
3128 -457.5
3129 -455
3130 -457.5
3131 -460
3132 -452.5
3133 -440
3134 -447.5
3135 -447.5
3136 -450
3137 -467.5
3138 -477.5
3139 -485
3140 -487.5
3141 -490
3142 -490
3143 -470
3144 -432.5
3145 -387.5
3146 -335
3147 -257.5
3148 -157.5
3149 -67.5
3150 27.5
3151 125
3152 192.5
3153 232.5
3154 237.5
3155 215
3156 170
3157 80
3158 -32.5
3159 -150
3160 -285
3161 -397.5
3162 -497.5
3163 -575
3164 -615
3165 -635
3166 -630
3167 -610
3168 -577.5
3169 -545
3170 -515
3171 -482.5
3172 -457.5
3173 -442.5
3174 -432.5
3175 -432.5
3176 -432.5
3177 -430
3178 -425
3179 -407.5
3180 -390
3181 -382.5
3182 -372.5
3183 -355
3184 -347.5
3185 -340
3186 -337.5
3187 -332.5
3188 -342.5
3189 -357.5
3190 -377.5
3191 -410
3192 -427.5
3193 -432.5
3194 -420
3195 -402.5
3196 -390
3197 -367.5
3198 -355
3199 -345
3200 -325
3201 -305
3202 -287.5
3203 -287.5
3204 -300
3205 -315
3206 -330
3207 -337.5
3208 -342.5
3209 -342.5
3210 -332.5
3211 -330
3212 -312.5
3213 -302.5
3214 -290
3215 -275
3216 -270
3217 -275
3218 -285
3219 -287.5
3220 -295
3221 -302.5
3222 -310
3223 -320
3224 -320
3225 -320
3226 -315
3227 -307.5
3228 -295
3229 -287.5
3230 -272.5
3231 -260
3232 -250
3233 -232.5
3234 -220
3235 -220
3236 -212.5
3237 -200
3238 -197.5
3239 -192.5
3240 -195
3241 -200
3242 -200
3243 -210
3244 -210
3245 -207.5
3246 -212.5
3247 -210
3248 -212.5
3249 -215
3250 -215
3251 -220
3252 -215
3253 -205
3254 -202.5
3255 -190
3256 -185
3257 -187.5
3258 -177.5
3259 -167.5
3260 -155
3261 -152.5
3262 -147.5
3263 -157.5
3264 -175
3265 -172.5
3266 -182.5
3267 -182.5
3268 -180
3269 -192.5
3270 -175
3271 -170
3272 -165
3273 -145
3274 -140
3275 -132.5
3276 -127.5
3277 -125
3278 -107.5
3279 -102.5
3280 -102.5
3281 -100
3282 -102.5
3283 -107.5
3284 -105
3285 -110
3286 -112.5
3287 -110
3288 -112.5
3289 -112.5
3290 -107.5
3291 -102.5
3292 -92.5
3293 -87.5
3294 -87.5
3295 -75
3296 -72.5
3297 -77.5
3298 -75
3299 -87.5
3300 -110
3301 -117.5
3302 -117.5
3303 -115
3304 -102.5
3305 -105
3306 -105
3307 -100
3308 -112.5
3309 -105
3310 -95
3311 -102.5
3312 -110
3313 -127.5
3314 -145
3315 -152.5
3316 -165
3317 -160
3318 -155
3319 -150
3320 -145
3321 -147.5
3322 -132.5
3323 -117.5
3324 -107.5
3325 -92.5
3326 -82.5
3327 -82.5
3328 -82.5
3329 -85
3330 -87.5
3331 -82.5
3332 -92.5
3333 -92.5
3334 -95
3335 -105
3336 -97.5
3337 -95
3338 -95
3339 -80
3340 -72.5
3341 -67.5
3342 -60
3343 -62.5
3344 -70
3345 -70
3346 -80
3347 -92.5
3348 -87.5
3349 -87.5
3350 -87.5
3351 -77.5
3352 -75
3353 -67.5
3354 -57.5
3355 -52.5
3356 -40
3357 -32.5
3358 -27.5
3359 -27.5
3360 -32.5
3361 -25
3362 -25
3363 -22.5
3364 -10
3365 -7.5
3366 -5
3367 -5
3368 -15
3369 -12.5
3370 -15
3371 -27.5
3372 -25
3373 -27.5
3374 -37.5
3375 -37.5
3376 -30
3377 -17.5
3378 -5
3379 2.5
3380 20
3381 35
3382 45
3383 55
3384 65
3385 75
3386 67.5
3387 57.5
3388 52.5
3389 60
3390 80
3391 107.5
3392 142.5
3393 182.5
3394 220
3395 250
3396 287.5
3397 317.5
3398 332.5
3399 337.5
3400 337.5
3401 312.5
3402 282.5
3403 262.5
3404 232.5
3405 202.5
3406 185
3407 160
3408 152.5
3409 140
3410 115
3411 120
3412 107.5
3413 85
3414 77.5
3415 57.5
3416 47.5
3417 45
3418 47.5
3419 47.5
3420 45
3421 42.5
3422 40
3423 42.5
3424 37.5
3425 40
3426 40
3427 37.5
3428 30
3429 25
3430 17.5
3431 5
3432 5
3433 5
3434 7.5
3435 17.5
3436 15
3437 25
3438 25
3439 22.5
3440 27.5
3441 22.5
3442 12.5
3443 -7.5
3444 -30
3445 -45
3446 -70
3447 -77.5
3448 -75
3449 -75
3450 -57.5
3451 -35
3452 -2.5
3453 42.5
3454 95
3455 165
3456 247.5
3457 335
3458 417.5
3459 507.5
3460 570
3461 605
3462 630
3463 620
3464 595
3465 550
3466 462.5
3467 357.5
3468 227.5
3469 97.5
3470 -5
3471 -87.5
3472 -132.5
3473 -162.5
3474 -177.5
3475 -182.5
3476 -175
3477 -152.5
3478 -115
3479 -70
3480 -30
3481 0
3482 15
3483 35
3484 50
3485 55
3486 70
3487 82.5
3488 87.5
3489 95
3490 97.5
3491 100
3492 100
3493 95
3494 90
3495 87.5
3496 90
3497 102.5
3498 117.5
3499 137.5
3500 160
3501 177.5
3502 195
3503 202.5
3504 217.5
3505 237.5
3506 245
3507 255
3508 242.5
3509 222.5
3510 210
3511 202.5
3512 207.5
3513 217.5
3514 227.5
3515 227.5
3516 237.5
3517 252.5
3518 270
3519 290
3520 297.5
3521 297.5
3522 295
3523 292.5
3524 305
3525 320
3526 340
3527 355
3528 360
3529 372.5
3530 382.5
3531 395
3532 415
3533 420
3534 427.5
3535 427.5
3536 417.5
3537 412.5
3538 410
3539 422.5
3540 427.5
3541 432.5
3542 430
3543 422.5
3544 422.5
3545 420
3546 425
3547 435
3548 447.5
3549 450
3550 457.5
3551 470
3552 477.5
3553 497.5
3554 512.5
3555 520
3556 530
3557 527.5
3558 517.5
3559 510
3560 500
3561 490
3562 490
3563 482.5
3564 480
3565 492.5
3566 502.5
3567 510
3568 522.5
3569 535
3570 535
3571 522.5
3572 517.5
3573 512.5
3574 507.5
3575 500
3576 495
3577 497.5
3578 482.5
3579 472.5
3580 480
3581 482.5
3582 485
3583 510
3584 522.5
3585 532.5
3586 550
3587 550
3588 565
3589 575
3590 575
3591 597.5
3592 607.5
3593 612.5
3594 617.5
3595 600
3596 587.5
3597 575
3598 570
3599 582.5
3600 582.5
3601 585
3602 582.5
3603 572.5
3604 572.5
3605 575
3606 582.5
3607 582.5
3608 577.5
3609 557.5
3610 545
3611 542.5
3612 530
3613 527.5
3614 520
3615 505
3616 500
3617 500
3618 500
3619 505
3620 507.5
3621 510
3622 515
3623 530
3624 532.5
3625 537.5
3626 542.5
3627 532.5
3628 527.5
3629 525
3630 522.5
3631 525
3632 522.5
3633 512.5
3634 510
3635 497.5
3636 485
3637 492.5
3638 495
3639 507.5
3640 522.5
3641 532.5
3642 545
3643 547.5
3644 552.5
3645 570
3646 577.5
3647 577.5
3648 580
3649 577.5
3650 565
3651 547.5
3652 550
3653 550
3654 547.5
3655 562.5
3656 575
3657 580
3658 595
3659 590
3660 597.5
3661 610
3662 592.5
3663 597.5
3664 607.5
3665 587.5
3666 580
3667 572.5
3668 557.5
3669 562.5
3670 562.5
3671 565
3672 582.5
3673 582.5
3674 575
3675 572.5
3676 567.5
3677 557.5
3678 560
3679 552.5
3680 545
3681 540
3682 515
3683 515
3684 530
3685 550
3686 580
3687 602.5
3688 612.5
3689 620
3690 617.5
3691 622.5
3692 640
3693 647.5
3694 655
3695 665
3696 665
3697 680
3698 690
3699 715
3700 740
3701 745
3702 755
3703 760
3704 760
3705 765
3706 762.5
3707 750
3708 740
3709 720
3710 697.5
3711 682.5
3712 650
3713 612.5
3714 575
3715 537.5
3716 505
3717 470
3718 430
3719 405
3720 375
3721 347.5
3722 345
3723 332.5
3724 325
3725 307.5
3726 290
3727 287.5
3728 275
3729 267.5
3730 262.5
3731 247.5
3732 227.5
3733 220
3734 215
3735 210
3736 217.5
3737 212.5
3738 207.5
3739 212.5
3740 207.5
3741 220
3742 225
3743 230
3744 237.5
3745 242.5
3746 245
3747 240
3748 235
3749 212.5
3750 195
3751 172.5
3752 150
3753 140
3754 10
3755 -7.5
3756 -32.5
3757 -45
3758 -47.5
3759 -57.5
3760 -62.5
3761 -67.5
3762 -70
3763 -62.5
3764 -77.5
3765 -82.5
3766 -77.5
3767 -97.5
3768 -102.5
3769 -100
3770 -105
3771 -105
3772 -107.5
3773 -102.5
3774 -100
3775 -97.5
3776 -85
3777 -80
3778 -72.5
3779 -75
3780 -92.5
3781 -107.5
3782 -135
3783 -162.5
3784 -177.5
3785 -195
3786 -210
3787 -215
3788 -222.5
3789 -222.5
3790 -205
3791 -187.5
3792 -145
3793 -85
3794 -17.5
3795 60
3796 145
3797 227.5
3798 280
3799 302.5
3800 300
3801 295
3802 255
3803 185
3804 117.5
3805 17.5
3806 -92.5
3807 -197.5
3808 -282.5
3809 -335
3810 -380
3811 -410
3812 -430
3813 -432.5
3814 -430
3815 -420
3816 -397.5
3817 -385
3818 -380
3819 -365
3820 -342.5
3821 -332.5
3822 -305
3823 -282.5
3824 -282.5
3825 -270
3826 -275
3827 -275
3828 -270
3829 -275
3830 -285
3831 -292.5
3832 -292.5
3833 -295
3834 -290
3835 -290
3836 -297.5
3837 -297.5
3838 -300
3839 -292.5
3840 -287.5
3841 -280
3842 -280
3843 -297.5
3844 -305
3845 -320
3846 -330
3847 -317.5
3848 -317.5
3849 -310
3850 -297.5
3851 -307.5
3852 -310
3853 -302.5
3854 -300
3855 -287.5
3856 -277.5
3857 -280
3858 -280
3859 -290
3860 -302.5
3861 -307.5
3862 -310
3863 -310
3864 -312.5
3865 -307.5
3866 -307.5
3867 -302.5
3868 -292.5
3869 -292.5
3870 -282.5
3871 -272.5
3872 -260
3873 -252.5
3874 -250
3875 -245
3876 -242.5
3877 -237.5
3878 -230
3879 -230
3880 -227.5
3881 -230
3882 -235
3883 -235
3884 -237.5
3885 -242.5
3886 -250
3887 -260
3888 -257.5
3889 -252.5
3890 -255
3891 -255
3892 -250
3893 -245
3894 -237.5
3895 -227.5
3896 -217.5
3897 -205
3898 -207.5
3899 -197.5
3900 -192.5
3901 -192.5
3902 -182.5
3903 -182.5
3904 -180
3905 -175
3906 -170
3907 -167.5
3908 -162.5
3909 -165
3910 -175
3911 -165
3912 -170
3913 -172.5
3914 -165
3915 -162.5
3916 -162.5
3917 -165
3918 -172.5
3919 -175
3920 -167.5
3921 -170
3922 -167.5
3923 -160
3924 -160
3925 -157.5
3926 -152.5
3927 -145
3928 -135
3929 -120
3930 -112.5
3931 -105
3932 -100
3933 -105
3934 -100
3935 -107.5
3936 -117.5
3937 -127.5
3938 -142.5
3939 -152.5
3940 -160
3941 -170
3942 -175
3943 -175
3944 -177.5
3945 -177.5
3946 -172.5
3947 -165
3948 -160
3949 -160
3950 -157.5
3951 -152.5
3952 -152.5
3953 -157.5
3954 -165
3955 -172.5
3956 -172.5
3957 -180
3958 -172.5
3959 -170
3960 -182.5
3961 -190
3962 -207.5
3963 -210
3964 -207.5
3965 -207.5
3966 -207.5
3967 -217.5
3968 -220
3969 -217.5
3970 -215
3971 -200
3972 -185
3973 -177.5
3974 -167.5
3975 -155
3976 -152.5
3977 -157.5
3978 -165
3979 -172.5
3980 -175
3981 -182.5
3982 -185
3983 -182.5
3984 -187.5
3985 -192.5
3986 -195
3987 -187.5
3988 -190
3989 -190
3990 -190
3991 -187.5
3992 -190
3993 -192.5
3994 -182.5
3995 -177.5
3996 -177.5
3997 -170
3998 -160
3999 -147.5
4000 -142.5
4001 -145
4002 -155
4003 -175
4004 -200
4005 -215
4006 -215
4007 -215
4008 -212.5
4009 -205
4010 -202.5
4011 -195
4012 -180
4013 -157.5
4014 -142.5
4015 -132.5
4016 -130
4017 -125
4018 -112.5
4019 -117.5
4020 -115
4021 -105
4022 -90
4023 -77.5
4024 -57.5
4025 -32.5
4026 -10
4027 -5
4028 -5
4029 7.5
4030 15
4031 25
4032 40
4033 52.5
4034 62.5
4035 65
4036 70
4037 67.5
4038 72.5
4039 65
4040 52.5
4041 42.5
4042 5
4043 -15
4044 -37.5
4045 -62.5
4046 -72.5
4047 -87.5
4048 -105
4049 -115
4050 -130
4051 -147.5
4052 -160
4053 -177.5
4054 -210
4055 -225
4056 -245
4057 -272.5
4058 -275
4059 -282.5
4060 -290
4061 -285
4062 -295
4063 -297.5
4064 -292.5
4065 -290
4066 -285
4067 -280
4068 -272.5
4069 -267.5
4070 -267.5
4071 -265
4072 -267.5
4073 -255
4074 -250
4075 -255
4076 -250
4077 -260
4078 -272.5
4079 -280
4080 -292.5
4081 -292.5
4082 -300
4083 -297.5
4084 -297.5
4085 -307.5
4086 -312.5
4087 -310
4088 -307.5
4089 -312.5
4090 -300
4091 -265
4092 -240
4093 -197.5
4094 -117.5
4095 -32.5
4096 72.5
4097 185
4098 285
4099 370
4100 407.5
4101 417.5
4102 395
4103 345
4104 262.5
4105 142.5
4106 7.5
4107 -140
4108 -282.5
4109 -392.5
4110 -467.5
4111 -525
4112 -555
4113 -562.5
4114 -552.5
4115 -520
4116 -482.5
4117 -435
4118 -390
4119 -340
4120 -307.5
4121 -277.5
4122 -235
4123 -227.5
4124 -225
4125 -220
4126 -227.5
4127 -217.5
4128 -215
4129 -225
4130 -227.5
4131 -232.5
4132 -242.5
4133 -242.5
4134 -230
4135 -222.5
4136 -220
4137 -227.5
4138 -240
4139 -247.5
4140 -255
4141 -260
4142 -255
4143 -255
4144 -262.5
4145 -270
4146 -282.5
4147 -292.5
4148 -297.5
4149 -300
4150 -297.5
4151 -302.5
4152 -310
4153 -305
4154 -310
4155 -312.5
4156 -310
4157 -320
4158 -322.5
4159 -330
4160 -342.5
4161 -347.5
4162 -360
4163 -375
4164 -380
4165 -385
4166 -385
4167 -380
4168 -382.5
4169 -377.5
4170 -370
4171 -367.5
4172 -360
4173 -345
4174 -345
4175 -347.5
4176 -355
4177 -365
4178 -370
4179 -380
4180 -395
4181 -402.5
4182 -412.5
4183 -425
4184 -422.5
4185 -415
4186 -405
4187 -392.5
4188 -390
4189 -390
4190 -385
4191 -380
4192 -377.5
4193 -385
4194 -395
4195 -405
4196 -410
4197 -405
4198 -392.5
4199 -382.5
4200 -367.5
4201 -362.5
4202 -360
4203 -352.5
4204 -350
4205 -345
4206 -335
4207 -335
4208 -337.5
4209 -340
4210 -347.5
4211 -345
4212 -345
4213 -345
4214 -352.5
4215 -360
4216 -365
4217 -385
4218 -390
4219 -395
4220 -400
4221 -395
4222 -397.5
4223 -392.5
4224 -392.5
4225 -395
4226 -397.5
4227 -397.5
4228 -397.5
4229 -392.5
4230 -380
4231 -375
4232 -375
4233 -370
4234 -365
4235 -370
4236 -367.5
4237 -365
4238 -362.5
4239 -357.5
4240 -360
4241 -367.5
4242 -362.5
4243 -362.5
4244 -362.5
4245 -350
4246 -357.5
4247 -360
4248 -357.5
4249 -380
4250 -390
4251 -395
4252 -412.5
4253 -417.5
4254 -422.5
4255 -432.5
4256 -437.5
4257 -440
4258 -452.5
4259 -460
4260 -460
4261 -467.5
4262 -467.5
4263 -470
4264 -485
4265 -477.5
4266 -462.5
4267 -460
4268 -442.5
4269 -437.5
4270 -452.5
4271 -450
4272 -447.5
4273 -440
4274 -425
4275 -422.5
4276 -437.5
4277 -440
4278 -442.5
4279 -442.5
4280 -420
4281 -415
4282 -422.5
4283 -415
4284 -427.5
4285 -435
4286 -420
4287 -412.5
4288 -410
4289 -402.5
4290 -417.5
4291 -437.5
4292 -450
4293 -460
4294 -460
4295 -445
4296 -445
4297 -452.5
4298 -460
4299 -470
4300 -472.5
4301 -457.5
4302 -437.5
4303 -425
4304 -412.5
4305 -412.5
4306 -420
4307 -425
4308 -430
4309 -432.5
4310 -432.5
4311 -425
4312 -430
4313 -432.5
4314 -427.5
4315 -435
4316 -430
4317 -417.5
4318 -412.5
4319 -400
4320 -382.5
4321 -370
4322 -360
4323 -357.5
4324 -355
4325 -345
4326 -347.5
4327 -340
4328 -320
4329 -307.5
4330 -297.5
4331 -295
4332 -282.5
4333 -255
4334 -247.5
4335 -232.5
4336 -212.5
4337 -215
4338 -212.5
4339 -205
4340 -205
4341 -197.5
4342 -202.5
4343 -215
4344 -220
4345 -225
4346 -232.5
4347 -232.5
4348 -242.5
4349 -260
4350 -285
4351 -310
4352 -337.5
4353 -365
4354 -385
4355 -407.5
4356 -425
4357 -447.5
4358 -465
4359 -480
4360 -502.5
4361 -510
4362 -497.5
4363 -495
4364 -490
4365 -490
4366 -495
4367 -485
4368 -492.5
4369 -485
4370 -465
4371 -457.5
4372 -455
4373 -467.5
4374 -475
4375 -480
4376 -485
4377 -480
4378 -470
4379 -457.5
4380 -455
4381 -457.5
4382 -460
4383 -452.5
4384 -440
4385 -447.5
4386 -447.5
4387 -450
4388 -467.5
4389 -477.5
4390 -485
4391 -487.5
4392 -490
4393 -490
4394 -470
4395 -432.5
4396 -387.5
4397 -335
4398 -257.5
4399 -157.5
4400 -67.5
4401 27.5
4402 125
4403 192.5
4404 232.5
4405 237.5
4406 215
4407 170
4408 80
4409 -32.5
4410 -150
4411 -285
4412 -397.5
4413 -497.5
4414 -575
4415 -615
4416 -635
4417 -630
4418 -610
4419 -577.5
4420 -545
4421 -515
4422 -482.5
4423 -457.5
4424 -442.5
4425 -432.5
4426 -432.5
4427 -432.5
4428 -430
4429 -425
4430 -407.5
4431 -390
4432 -382.5
4433 -372.5
4434 -355
4435 -347.5
4436 -340
4437 -337.5
4438 -332.5
4439 -342.5
4440 -357.5
4441 -377.5
4442 -410
4443 -427.5
4444 -432.5
4445 -420
4446 -402.5
4447 -390
4448 -367.5
4449 -355
4450 -345
4451 -325
4452 -305
4453 -287.5
4454 -287.5
4455 -300
4456 -315
4457 -330
4458 -337.5
4459 -342.5
4460 -342.5
4461 -332.5
4462 -330
4463 -312.5
4464 -302.5
4465 -290
4466 -275
4467 -270
4468 -275
4469 -285
4470 -287.5
4471 -295
4472 -302.5
4473 -310
4474 -320
4475 -320
4476 -320
4477 -315
4478 -307.5
4479 -295
4480 -287.5
4481 -272.5
4482 -260
4483 -250
4484 -232.5
4485 -220
4486 -220
4487 -212.5
4488 -200
4489 -197.5
4490 -192.5
4491 -195
4492 -200
4493 -200
4494 -210
4495 -210
4496 -207.5
4497 -212.5
4498 -210
4499 -212.5
4500 -215
4501 -215
4502 -220
4503 -215
4504 -205
4505 -202.5
4506 -190
4507 -185
4508 -187.5
4509 -177.5
4510 -167.5
4511 -155
4512 -152.5
4513 -147.5
4514 -157.5
4515 -175
4516 -172.5
4517 -182.5
4518 -182.5
4519 -180
4520 -192.5
4521 -175
4522 -170
4523 -165
4524 -145
4525 -140
4526 -132.5
4527 -127.5
4528 -125
4529 -107.5
4530 -102.5
4531 -102.5
4532 -100
4533 -102.5
4534 -107.5
4535 -105
4536 -110
4537 -112.5
4538 -110
4539 -112.5
4540 -112.5
4541 -107.5
4542 -102.5
4543 -92.5
4544 -87.5
4545 -87.5
4546 -75
4547 -72.5
4548 -77.5
4549 -75
4550 -87.5
4551 -110
4552 -117.5
4553 -117.5
4554 -115
4555 -102.5
4556 -105
4557 -105
4558 -100
4559 -112.5
4560 -105
4561 -95
4562 -102.5
4563 -110
4564 -127.5
4565 -145
4566 -152.5
4567 -165
4568 -160
4569 -155
4570 -150
4571 -145
4572 -147.5
4573 -132.5
4574 -117.5
4575 -107.5
4576 -92.5
4577 -82.5
4578 -82.5
4579 -82.5
4580 -85
4581 -87.5
4582 -82.5
4583 -92.5
4584 -92.5
4585 -95
4586 -105
4587 -97.5
4588 -95
4589 -95
4590 -80
4591 -72.5
4592 -67.5
4593 -60
4594 -62.5
4595 -70
4596 -70
4597 -80
4598 -92.5
4599 -87.5
4600 -87.5
4601 -87.5
4602 -77.5
4603 -75
4604 -67.5
4605 -57.5
4606 -52.5
4607 -40
4608 -32.5
4609 -27.5
4610 -27.5
4611 -32.5
4612 -25
4613 -25
4614 -22.5
4615 -10
4616 -7.5
4617 -5
4618 -5
4619 -15
4620 -12.5
4621 -15
4622 -27.5
4623 -25
4624 -27.5
4625 -37.5
4626 -37.5
4627 -30
4628 -17.5
4629 -5
4630 2.5
4631 20
4632 35
4633 45
4634 55
4635 65
4636 75
4637 67.5
4638 57.5
4639 52.5
4640 60
4641 80
4642 107.5
4643 142.5
4644 182.5
4645 220
4646 250
4647 287.5
4648 317.5
4649 332.5
4650 337.5
4651 337.5
4652 312.5
4653 282.5
4654 262.5
4655 232.5
4656 202.5
4657 185
4658 160
4659 152.5
4660 140
4661 115
4662 120
4663 107.5
4664 85
4665 77.5
4666 57.5
4667 47.5
4668 45
4669 47.5
4670 47.5
4671 45
4672 42.5
4673 40
4674 42.5
4675 37.5
4676 40
4677 40
4678 37.5
4679 30
4680 25
4681 17.5
4682 5
4683 5
4684 5
4685 7.5
4686 17.5
4687 15
4688 25
4689 25
4690 22.5
4691 27.5
4692 22.5
4693 12.5
4694 -7.5
4695 -30
4696 -45
4697 -70
4698 -77.5
4699 -75
4700 -75
4701 -57.5
4702 -35
4703 -2.5
4704 42.5
4705 95
4706 165
4707 247.5
4708 335
4709 417.5
4710 507.5
4711 570
4712 605
4713 630
4714 620
4715 595
4716 550
4717 462.5
4718 357.5
4719 227.5
4720 97.5
4721 -5
4722 -87.5
4723 -132.5
4724 -162.5
4725 -177.5
4726 -182.5
4727 -175
4728 -152.5
4729 -115
4730 -70
4731 -30
4732 0
4733 15
4734 35
4735 50
4736 55
4737 70
4738 82.5
4739 87.5
4740 95
4741 97.5
4742 100
4743 100
4744 95
4745 90
4746 87.5
4747 90
4748 102.5
4749 117.5
4750 137.5
4751 160
4752 177.5
4753 195
4754 202.5
4755 217.5
4756 237.5
4757 245
4758 255
4759 242.5
4760 222.5
4761 210
4762 202.5
4763 207.5
4764 217.5
4765 227.5
4766 227.5
4767 237.5
4768 252.5
4769 270
4770 290
4771 297.5
4772 297.5
4773 295
4774 292.5
4775 305
4776 320
4777 340
4778 355
4779 360
4780 372.5
4781 382.5
4782 395
4783 415
4784 420
4785 427.5
4786 427.5
4787 417.5
4788 412.5
4789 410
4790 422.5
4791 427.5
4792 432.5
4793 430
4794 422.5
4795 422.5
4796 420
4797 425
4798 435
4799 447.5
4800 450
4801 457.5
4802 470
4803 477.5
4804 497.5
4805 512.5
4806 520
4807 530
4808 527.5
4809 517.5
4810 510
4811 500
4812 490
4813 490
4814 482.5
4815 480
4816 492.5
4817 502.5
4818 510
4819 522.5
4820 535
4821 535
4822 522.5
4823 517.5
4824 512.5
4825 507.5
4826 500
4827 495
4828 497.5
4829 482.5
4830 472.5
4831 480
4832 482.5
4833 485
4834 510
4835 522.5
4836 532.5
4837 550
4838 550
4839 565
4840 575
4841 575
4842 597.5
4843 607.5
4844 612.5
4845 617.5
4846 600
4847 587.5
4848 575
4849 570
4850 582.5
4851 582.5
4852 585
4853 582.5
4854 572.5
4855 572.5
4856 575
4857 582.5
4858 582.5
4859 577.5
4860 557.5
4861 545
4862 542.5
4863 530
4864 527.5
4865 520
4866 505
4867 500
4868 500
4869 500
4870 505
4871 507.5
4872 510
4873 515
4874 530
4875 532.5
4876 537.5
4877 542.5
4878 532.5
4879 527.5
4880 525
4881 522.5
4882 525
4883 522.5
4884 512.5
4885 510
4886 497.5
4887 485
4888 492.5
4889 495
4890 507.5
4891 522.5
4892 532.5
4893 545
4894 547.5
4895 552.5
4896 570
4897 577.5
4898 577.5
4899 580
4900 577.5
4901 565
4902 547.5
4903 550
4904 550
4905 547.5
4906 562.5
4907 575
4908 580
4909 595
4910 590
4911 597.5
4912 610
4913 592.5
4914 597.5
4915 607.5
4916 587.5
4917 580
4918 572.5
4919 557.5
4920 562.5
4921 562.5
4922 565
4923 582.5
4924 582.5
4925 575
4926 572.5
4927 567.5
4928 557.5
4929 560
4930 552.5
4931 545
4932 540
4933 515
4934 515
4935 530
4936 550
4937 580
4938 602.5
4939 612.5
4940 620
4941 617.5
4942 622.5
4943 640
4944 647.5
4945 655
4946 665
4947 665
4948 680
4949 690
4950 715
4951 740
4952 745
4953 755
4954 760
4955 760
4956 765
4957 762.5
4958 750
4959 740
4960 720
4961 697.5
4962 682.5
4963 650
4964 612.5
4965 575
4966 537.5
4967 505
4968 470
4969 430
4970 405
4971 375
4972 347.5
4973 345
4974 332.5
4975 325
4976 307.5
4977 290
4978 287.5
4979 275
4980 267.5
4981 262.5
4982 247.5
4983 227.5
4984 220
4985 215
4986 210
4987 217.5
4988 212.5
4989 207.5
4990 212.5
4991 207.5
4992 220
4993 225
4994 230
4995 237.5
4996 242.5
4997 245
4998 240
4999 235
5000 212.5
5001 195
5002 172.5
5003 150
5004 140
5005 10
5006 -7.5
5007 -32.5
5008 -45
5009 -47.5
5010 -57.5
5011 -62.5
5012 -67.5
5013 -70
5014 -62.5
5015 -77.5
5016 -82.5
5017 -77.5
5018 -97.5
5019 -102.5
5020 -100
5021 -105
5022 -105
5023 -107.5
5024 -102.5
5025 -100
5026 -97.5
5027 -85
5028 -80
5029 -72.5
5030 -75
5031 -92.5
5032 -107.5
5033 -135
5034 -162.5
5035 -177.5
5036 -195
5037 -210
5038 -215
5039 -222.5
5040 -222.5
5041 -205
5042 -187.5
5043 -145
5044 -85
5045 -17.5
5046 60
5047 145
5048 227.5
5049 280
5050 302.5
5051 300
5052 295
5053 255
5054 185
5055 117.5
5056 17.5
5057 -92.5
5058 -197.5
5059 -282.5
5060 -335
5061 -380
5062 -410
5063 -430
5064 -432.5
5065 -430
5066 -420
5067 -397.5
5068 -385
5069 -380
5070 -365
5071 -342.5
5072 -332.5
5073 -305
5074 -282.5
5075 -282.5
5076 -270
5077 -275
5078 -275
5079 -270
5080 -275
5081 -285
5082 -292.5
5083 -292.5
5084 -295
5085 -290
5086 -290
5087 -297.5
5088 -297.5
5089 -300
5090 -292.5
5091 -287.5
5092 -280
5093 -280
5094 -297.5
5095 -305
5096 -320
5097 -330
5098 -317.5
5099 -317.5
5100 -310
5101 -297.5
5102 -307.5
5103 -310
5104 -302.5
5105 -300
5106 -287.5
5107 -277.5
5108 -280
5109 -280
5110 -290
5111 -302.5
5112 -307.5
5113 -310
5114 -310
5115 -312.5
5116 -307.5
5117 -307.5
5118 -302.5
5119 -292.5
5120 -292.5
5121 -282.5
5122 -272.5
5123 -260
5124 -252.5
5125 -250
5126 -245
5127 -242.5
5128 -237.5
5129 -230
5130 -230
5131 -227.5
5132 -230
5133 -235
5134 -235
5135 -237.5
5136 -242.5
5137 -250
5138 -260
5139 -257.5
5140 -252.5
5141 -255
5142 -255
5143 -250
5144 -245
5145 -237.5
5146 -227.5
5147 -217.5
5148 -205
5149 -207.5
5150 -197.5
5151 -192.5
5152 -192.5
5153 -182.5
5154 -182.5
5155 -180
5156 -175
5157 -170
5158 -167.5
5159 -162.5
5160 -165
5161 -175
5162 -165
5163 -170
5164 -172.5
5165 -165
5166 -162.5
5167 -162.5
5168 -165
5169 -172.5
5170 -175
5171 -167.5
5172 -170
5173 -167.5
5174 -160
5175 -160
5176 -157.5
5177 -152.5
5178 -145
5179 -135
5180 -120
5181 -112.5
5182 -105
5183 -100
5184 -105
5185 -100
5186 -107.5
5187 -117.5
5188 -127.5
5189 -142.5
5190 -152.5
5191 -160
5192 -170
5193 -175
5194 -175
5195 -177.5
5196 -177.5
5197 -172.5
5198 -165
5199 -160
5200 -160
5201 -157.5
5202 -152.5
5203 -152.5
5204 -157.5
5205 -165
5206 -172.5
5207 -172.5
5208 -180
5209 -172.5
5210 -170
5211 -182.5
5212 -190
5213 -207.5
5214 -210
5215 -207.5
5216 -207.5
5217 -207.5
5218 -217.5
5219 -220
5220 -217.5
5221 -215
5222 -200
5223 -185
5224 -177.5
5225 -167.5
5226 -155
5227 -152.5
5228 -157.5
5229 -165
5230 -172.5
5231 -175
5232 -182.5
5233 -185
5234 -182.5
5235 -187.5
5236 -192.5
5237 -195
5238 -187.5
5239 -190
5240 -190
5241 -190
5242 -187.5
5243 -190
5244 -192.5
5245 -182.5
5246 -177.5
5247 -177.5
5248 -170
5249 -160
5250 -147.5
5251 -142.5
5252 -145
5253 -155
5254 -175
5255 -200
5256 -215
5257 -215
5258 -215
5259 -212.5
5260 -205
5261 -202.5
5262 -195
5263 -180
5264 -157.5
5265 -142.5
5266 -132.5
5267 -130
5268 -125
5269 -112.5
5270 -117.5
5271 -115
5272 -105
5273 -90
5274 -77.5
5275 -57.5
5276 -32.5
5277 -10
5278 -5
5279 -5
5280 7.5
5281 15
5282 25
5283 40
5284 52.5
5285 62.5
5286 65
5287 70
5288 67.5
5289 72.5
5290 65
5291 52.5
5292 42.5
5293 5
5294 -15
5295 -37.5
5296 -62.5
5297 -72.5
5298 -87.5
5299 -105
5300 -115
5301 -130
5302 -147.5
5303 -160
5304 -177.5
5305 -210
5306 -225
5307 -245
5308 -272.5
5309 -275
5310 -282.5
5311 -290
5312 -285
5313 -295
5314 -297.5
5315 -292.5
5316 -290
5317 -285
5318 -280
5319 -272.5
5320 -267.5
5321 -267.5
5322 -265
5323 -267.5
5324 -255
5325 -250
5326 -255
5327 -250
5328 -260
5329 -272.5
5330 -280
5331 -292.5
5332 -292.5
5333 -300
5334 -297.5
5335 -297.5
5336 -307.5
5337 -312.5
5338 -310
5339 -307.5
5340 -312.5
5341 -300
5342 -265
5343 -240
5344 -197.5
5345 -117.5
5346 -32.5
5347 72.5
5348 185
5349 285
5350 370
5351 407.5
5352 417.5
5353 395
5354 345
5355 262.5
5356 142.5
5357 7.5
5358 -140
5359 -282.5
5360 -392.5
5361 -467.5
5362 -525
5363 -555
5364 -562.5
5365 -552.5
5366 -520
5367 -482.5
5368 -435
5369 -390
5370 -340
5371 -307.5
5372 -277.5
5373 -235
5374 -227.5
5375 -225
5376 -220
5377 -227.5
5378 -217.5
5379 -215
5380 -225
5381 -227.5
5382 -232.5
5383 -242.5
5384 -242.5
5385 -230
5386 -222.5
5387 -220
5388 -227.5
5389 -240
5390 -247.5
5391 -255
5392 -260
5393 -255
5394 -255
5395 -262.5
5396 -270
5397 -282.5
5398 -292.5
5399 -297.5
5400 -300
5401 -297.5
5402 -302.5
5403 -310
5404 -305
5405 -310
5406 -312.5
5407 -310
5408 -320
5409 -322.5
5410 -330
5411 -342.5
5412 -347.5
5413 -360
5414 -375
5415 -380
5416 -385
5417 -385
5418 -380
5419 -382.5
5420 -377.5
5421 -370
5422 -367.5
5423 -360
5424 -345
5425 -345
5426 -347.5
5427 -355
5428 -365
5429 -370
5430 -380
5431 -395
5432 -402.5
5433 -412.5
5434 -425
5435 -422.5
5436 -415
5437 -405
5438 -392.5
5439 -390
5440 -390
5441 -385
5442 -380
5443 -377.5
5444 -385
5445 -395
5446 -405
5447 -410
5448 -405
5449 -392.5
5450 -382.5
5451 -367.5
5452 -362.5
5453 -360
5454 -352.5
5455 -350
5456 -345
5457 -335
5458 -335
5459 -337.5
5460 -340
5461 -347.5
5462 -345
5463 -345
5464 -345
5465 -352.5
5466 -360
5467 -365
5468 -385
5469 -390
5470 -395
5471 -400
5472 -395
5473 -397.5
5474 -392.5
5475 -392.5
5476 -395
5477 -397.5
5478 -397.5
5479 -397.5
5480 -392.5
5481 -380
5482 -375
5483 -375
5484 -370
5485 -365
5486 -370
5487 -367.5
5488 -365
5489 -362.5
5490 -357.5
5491 -360
5492 -367.5
5493 -362.5
5494 -362.5
5495 -362.5
5496 -350
5497 -357.5
5498 -360
5499 -357.5
5500 -380
5501 -390
5502 -395
5503 -412.5
5504 -417.5
5505 -422.5
5506 -432.5
5507 -437.5
5508 -440
5509 -452.5
5510 -460
5511 -460
5512 -467.5
5513 -467.5
5514 -470
5515 -485
5516 -477.5
5517 -462.5
5518 -460
5519 -442.5
5520 -437.5
5521 -452.5
5522 -450
5523 -447.5
5524 -440
5525 -425
5526 -422.5
5527 -437.5
5528 -440
5529 -442.5
5530 -442.5
5531 -420
5532 -415
5533 -422.5
5534 -415
5535 -427.5
5536 -435
5537 -420
5538 -412.5
5539 -410
5540 -402.5
5541 -417.5
5542 -437.5
5543 -450
5544 -460
5545 -460
5546 -445
5547 -445
5548 -452.5
5549 -460
5550 -470
5551 -472.5
5552 -457.5
5553 -437.5
5554 -425
5555 -412.5
5556 -412.5
5557 -420
5558 -425
5559 -430
5560 -432.5
5561 -432.5
5562 -425
5563 -430
5564 -432.5
5565 -427.5
5566 -435
5567 -430
5568 -417.5
5569 -412.5
5570 -400
5571 -382.5
5572 -370
5573 -360
5574 -357.5
5575 -355
5576 -345
5577 -347.5
5578 -340
5579 -320
5580 -307.5
5581 -297.5
5582 -295
5583 -282.5
5584 -255
5585 -247.5
5586 -232.5
5587 -212.5
5588 -215
5589 -212.5
5590 -205
5591 -205
5592 -197.5
5593 -202.5
5594 -215
5595 -220
5596 -225
5597 -232.5
5598 -232.5
5599 -242.5
5600 -260
5601 -285
5602 -310
5603 -337.5
5604 -365
5605 -385
5606 -407.5
5607 -425
5608 -447.5
5609 -465
5610 -480
5611 -502.5
5612 -510
5613 -497.5
5614 -495
5615 -490
5616 -490
5617 -495
5618 -485
5619 -492.5
5620 -485
5621 -465
5622 -457.5
5623 -455
5624 -467.5
5625 -475
5626 -480
5627 -485
5628 -480
5629 -470
5630 -457.5
5631 -455
5632 -457.5
5633 -460
5634 -452.5
5635 -440
5636 -447.5
5637 -447.5
5638 -450
5639 -467.5
5640 -477.5
5641 -485
5642 -487.5
5643 -490
5644 -490
5645 -470
5646 -432.5
5647 -387.5
5648 -335
5649 -257.5
5650 -157.5
5651 -67.5
5652 27.5
5653 125
5654 192.5
5655 232.5
5656 237.5
5657 215
5658 170
5659 80
5660 -32.5
5661 -150
5662 -285
5663 -397.5
5664 -497.5
5665 -575
5666 -615
5667 -635
5668 -630
5669 -610
5670 -577.5
5671 -545
5672 -515
5673 -482.5
5674 -457.5
5675 -442.5
5676 -432.5
5677 -432.5
5678 -432.5
5679 -430
5680 -425
5681 -407.5
5682 -390
5683 -382.5
5684 -372.5
5685 -355
5686 -347.5
5687 -340
5688 -337.5
5689 -332.5
5690 -342.5
5691 -357.5
5692 -377.5
5693 -410
5694 -427.5
5695 -432.5
5696 -420
5697 -402.5
5698 -390
5699 -367.5
5700 -355
5701 -345
5702 -325
5703 -305
5704 -287.5
5705 -287.5
5706 -300
5707 -315
5708 -330
5709 -337.5
5710 -342.5
5711 -342.5
5712 -332.5
5713 -330
5714 -312.5
5715 -302.5
5716 -290
5717 -275
5718 -270
5719 -275
5720 -285
5721 -287.5
5722 -295
5723 -302.5
5724 -310
5725 -320
5726 -320
5727 -320
5728 -315
5729 -307.5
5730 -295
5731 -287.5
5732 -272.5
5733 -260
5734 -250
5735 -232.5
5736 -220
5737 -220
5738 -212.5
5739 -200
5740 -197.5
5741 -192.5
5742 -195
5743 -200
5744 -200
5745 -210
5746 -210
5747 -207.5
5748 -212.5
5749 -210
5750 -212.5
5751 -215
5752 -215
5753 -220
5754 -215
5755 -205
5756 -202.5
5757 -190
5758 -185
5759 -187.5
5760 -177.5
5761 -167.5
5762 -155
5763 -152.5
5764 -147.5
5765 -157.5
5766 -175
5767 -172.5
5768 -182.5
5769 -182.5
5770 -180
5771 -192.5
5772 -175
5773 -170
5774 -165
5775 -145
5776 -140
5777 -132.5
5778 -127.5
5779 -125
5780 -107.5
5781 -102.5
5782 -102.5
5783 -100
5784 -102.5
5785 -107.5
5786 -105
5787 -110
5788 -112.5
5789 -110
5790 -112.5
5791 -112.5
5792 -107.5
5793 -102.5
5794 -92.5
5795 -87.5
5796 -87.5
5797 -75
5798 -72.5
5799 -77.5
5800 -75
5801 -87.5
5802 -110
5803 -117.5
5804 -117.5
5805 -115
5806 -102.5
5807 -105
5808 -105
5809 -100
5810 -112.5
5811 -105
5812 -95
5813 -102.5
5814 -110
5815 -127.5
5816 -145
5817 -152.5
5818 -165
5819 -160
5820 -155
5821 -150
5822 -145
5823 -147.5
5824 -132.5
5825 -117.5
5826 -107.5
5827 -92.5
5828 -82.5
5829 -82.5
5830 -82.5
5831 -85
5832 -87.5
5833 -82.5
5834 -92.5
5835 -92.5
5836 -95
5837 -105
5838 -97.5
5839 -95
5840 -95
5841 -80
5842 -72.5
5843 -67.5
5844 -60
5845 -62.5
5846 -70
5847 -70
5848 -80
5849 -92.5
5850 -87.5
5851 -87.5
5852 -87.5
5853 -77.5
5854 -75
5855 -67.5
5856 -57.5
5857 -52.5
5858 -40
5859 -32.5
5860 -27.5
5861 -27.5
5862 -32.5
5863 -25
5864 -25
5865 -22.5
5866 -10
5867 -7.5
5868 -5
5869 -5
5870 -15
5871 -12.5
5872 -15
5873 -27.5
5874 -25
5875 -27.5
5876 -37.5
5877 -37.5
5878 -30
5879 -17.5
5880 -5
5881 2.5
5882 20
5883 35
5884 45
5885 55
5886 65
5887 75
5888 67.5
5889 57.5
5890 52.5
5891 60
5892 80
5893 107.5
5894 142.5
5895 182.5
5896 220
5897 250
5898 287.5
5899 317.5
5900 332.5
5901 337.5
5902 337.5
5903 312.5
5904 282.5
5905 262.5
5906 232.5
5907 202.5
5908 185
5909 160
5910 152.5
5911 140
5912 115
5913 120
5914 107.5
5915 85
5916 77.5
5917 57.5
5918 47.5
5919 45
5920 47.5
5921 47.5
5922 45
5923 42.5
5924 40
5925 42.5
5926 37.5
5927 40
5928 40
5929 37.5
5930 30
5931 25
5932 17.5
5933 5
5934 5
5935 5
5936 7.5
5937 17.5
5938 15
5939 25
5940 25
5941 22.5
5942 27.5
5943 22.5
5944 12.5
5945 -7.5
5946 -30
5947 -45
5948 -70
5949 -77.5
5950 -75
5951 -75
5952 -57.5
5953 -35
5954 -2.5
5955 42.5
5956 95
5957 165
5958 247.5
5959 335
5960 417.5
5961 507.5
5962 570
5963 605
5964 630
5965 620
5966 595
5967 550
5968 462.5
5969 357.5
5970 227.5
5971 97.5
5972 -5
5973 -87.5
5974 -132.5
5975 -162.5
5976 -177.5
5977 -182.5
5978 -175
5979 -152.5
5980 -115
5981 -70
5982 -30
5983 0
5984 15
5985 35
5986 50
5987 55
5988 70
5989 82.5
5990 87.5
5991 95
5992 97.5
5993 100
5994 100
5995 95
5996 90
5997 87.5
5998 90
5999 102.5
6000 117.5
6001 137.5
6002 160
6003 177.5
6004 195
6005 202.5
6006 217.5
6007 237.5
6008 245
6009 255
6010 242.5
6011 222.5
6012 210
6013 202.5
6014 207.5
6015 217.5
6016 227.5
6017 227.5
6018 237.5
6019 252.5
6020 270
6021 290
6022 297.5
6023 297.5
6024 295
6025 292.5
6026 305
6027 320
6028 340
6029 355
6030 360
6031 372.5
6032 382.5
6033 395
6034 415
6035 420
6036 427.5
6037 427.5
6038 417.5
6039 412.5
6040 410
6041 422.5
6042 427.5
6043 432.5
6044 430
6045 422.5
6046 422.5
6047 420
6048 425
6049 435
6050 447.5
6051 450
6052 457.5
6053 470
6054 477.5
6055 497.5
6056 512.5
6057 520
6058 530
6059 527.5
6060 517.5
6061 510
6062 500
6063 490
6064 490
6065 482.5
6066 480
6067 492.5
6068 502.5
6069 510
6070 522.5
6071 535
6072 535
6073 522.5
6074 517.5
6075 512.5
6076 507.5
6077 500
6078 495
6079 497.5
6080 482.5
6081 472.5
6082 480
6083 482.5
6084 485
6085 510
6086 522.5
6087 532.5
6088 550
6089 550
6090 565
6091 575
6092 575
6093 597.5
6094 607.5
6095 612.5
6096 617.5
6097 600
6098 587.5
6099 575
6100 570
6101 582.5
6102 582.5
6103 585
6104 582.5
6105 572.5
6106 572.5
6107 575
6108 582.5
6109 582.5
6110 577.5
6111 557.5
6112 545
6113 542.5
6114 530
6115 527.5
6116 520
6117 505
6118 500
6119 500
6120 500
6121 505
6122 507.5
6123 510
6124 515
6125 530
6126 532.5
6127 537.5
6128 542.5
6129 532.5
6130 527.5
6131 525
6132 522.5
6133 525
6134 522.5
6135 512.5
6136 510
6137 497.5
6138 485
6139 492.5
6140 495
6141 507.5
6142 522.5
6143 532.5
6144 545
6145 547.5
6146 552.5
6147 570
6148 577.5
6149 577.5
6150 580
6151 577.5
6152 565
6153 547.5
6154 550
6155 550
6156 547.5
6157 562.5
6158 575
6159 580
6160 595
6161 590
6162 597.5
6163 610
6164 592.5
6165 597.5
6166 607.5
6167 587.5
6168 580
6169 572.5
6170 557.5
6171 562.5
6172 562.5
6173 565
6174 582.5
6175 582.5
6176 575
6177 572.5
6178 567.5
6179 557.5
6180 560
6181 552.5
6182 545
6183 540
6184 515
6185 515
6186 530
6187 550
6188 580
6189 602.5
6190 612.5
6191 620
6192 617.5
6193 622.5
6194 640
6195 647.5
6196 655
6197 665
6198 665
6199 680
6200 690
6201 715
6202 740
6203 745
6204 755
6205 760
6206 760
6207 765
6208 762.5
6209 750
6210 740
6211 720
6212 697.5
6213 682.5
6214 650
6215 612.5
6216 575
6217 537.5
6218 505
6219 470
6220 430
6221 405
6222 375
6223 347.5
6224 345
6225 332.5
6226 325
6227 307.5
6228 290
6229 287.5
6230 275
6231 267.5
6232 262.5
6233 247.5
6234 227.5
6235 220
6236 215
6237 210
6238 217.5
6239 212.5
6240 207.5
6241 212.5
6242 207.5
6243 220
6244 225
6245 230
6246 237.5
6247 242.5
6248 245
6249 240
6250 235
6251 212.5
6252 195
6253 172.5
6254 150
6255 140
6256 10
6257 -7.5
6258 -32.5
6259 -45
6260 -47.5
6261 -57.5
6262 -62.5
6263 -67.5
6264 -70
6265 -62.5
6266 -77.5
6267 -82.5
6268 -77.5
6269 -97.5
6270 -102.5
6271 -100
6272 -105
6273 -105
6274 -107.5
6275 -102.5
6276 -100
6277 -97.5
6278 -85
6279 -80
6280 -72.5
6281 -75
6282 -92.5
6283 -107.5
6284 -135
6285 -162.5
6286 -177.5
6287 -195
6288 -210
6289 -215
6290 -222.5
6291 -222.5
6292 -205
6293 -187.5
6294 -145
6295 -85
6296 -17.5
6297 60
6298 145
6299 227.5
6300 280
6301 302.5
6302 300
6303 295
6304 255
6305 185
6306 117.5
6307 17.5
6308 -92.5
6309 -197.5
6310 -282.5
6311 -335
6312 -380
6313 -410
6314 -430
6315 -432.5
6316 -430
6317 -420
6318 -397.5
6319 -385
6320 -380
6321 -365
6322 -342.5
6323 -332.5
6324 -305
6325 -282.5
6326 -282.5
6327 -270
6328 -275
6329 -275
6330 -270
6331 -275
6332 -285
6333 -292.5
6334 -292.5
6335 -295
6336 -290
6337 -290
6338 -297.5
6339 -297.5
6340 -300
6341 -292.5
6342 -287.5
6343 -280
6344 -280
6345 -297.5
6346 -305
6347 -320
6348 -330
6349 -317.5
6350 -317.5
6351 -310
6352 -297.5
6353 -307.5
6354 -310
6355 -302.5
6356 -300
6357 -287.5
6358 -277.5
6359 -280
6360 -280
6361 -290
6362 -302.5
6363 -307.5
6364 -310
6365 -310
6366 -312.5
6367 -307.5
6368 -307.5
6369 -302.5
6370 -292.5
6371 -292.5
6372 -282.5
6373 -272.5
6374 -260
6375 -252.5
6376 -250
6377 -245
6378 -242.5
6379 -237.5
6380 -230
6381 -230
6382 -227.5
6383 -230
6384 -235
6385 -235
6386 -237.5
6387 -242.5
6388 -250
6389 -260
6390 -257.5
6391 -252.5
6392 -255
6393 -255
6394 -250
6395 -245
6396 -237.5
6397 -227.5
6398 -217.5
6399 -205
6400 -207.5
6401 -197.5
6402 -192.5
6403 -192.5
6404 -182.5
6405 -182.5
6406 -180
6407 -175
6408 -170
6409 -167.5
6410 -162.5
6411 -165
6412 -175
6413 -165
6414 -170
6415 -172.5
6416 -165
6417 -162.5
6418 -162.5
6419 -165
6420 -172.5
6421 -175
6422 -167.5
6423 -170
6424 -167.5
6425 -160
6426 -160
6427 -157.5
6428 -152.5
6429 -145
6430 -135
6431 -120
6432 -112.5
6433 -105
6434 -100
6435 -105
6436 -100
6437 -107.5
6438 -117.5
6439 -127.5
6440 -142.5
6441 -152.5
6442 -160
6443 -170
6444 -175
6445 -175
6446 -177.5
6447 -177.5
6448 -172.5
6449 -165
6450 -160
6451 -160
6452 -157.5
6453 -152.5
6454 -152.5
6455 -157.5
6456 -165
6457 -172.5
6458 -172.5
6459 -180
6460 -172.5
6461 -170
6462 -182.5
6463 -190
6464 -207.5
6465 -210
6466 -207.5
6467 -207.5
6468 -207.5
6469 -217.5
6470 -220
6471 -217.5
6472 -215
6473 -200
6474 -185
6475 -177.5
6476 -167.5
6477 -155
6478 -152.5
6479 -157.5
6480 -165
6481 -172.5
6482 -175
6483 -182.5
6484 -185
6485 -182.5
6486 -187.5
6487 -192.5
6488 -195
6489 -187.5
6490 -190
6491 -190
6492 -190
6493 -187.5
6494 -190
6495 -192.5
6496 -182.5
6497 -177.5
6498 -177.5
6499 -170
6500 -160
6501 -147.5
6502 -142.5
6503 -145
6504 -155
6505 -175
6506 -200
6507 -215
6508 -215
6509 -215
6510 -212.5
6511 -205
6512 -202.5
6513 -195
6514 -180
6515 -157.5
6516 -142.5
6517 -132.5
6518 -130
6519 -125
6520 -112.5
6521 -117.5
6522 -115
6523 -105
6524 -90
6525 -77.5
6526 -57.5
6527 -32.5
6528 -10
6529 -5
6530 -5
6531 7.5
6532 15
6533 25
6534 40
6535 52.5
6536 62.5
6537 65
6538 70
6539 67.5
6540 72.5
6541 65
6542 52.5
6543 42.5
6544 5
6545 -15
6546 -37.5
6547 -62.5
6548 -72.5
6549 -87.5
6550 -105
6551 -115
6552 -130
6553 -147.5
6554 -160
6555 -177.5
6556 -210
6557 -225
6558 -245
6559 -272.5
6560 -275
6561 -282.5
6562 -290
6563 -285
6564 -295
6565 -297.5
6566 -292.5
6567 -290
6568 -285
6569 -280
6570 -272.5
6571 -267.5
6572 -267.5
6573 -265
6574 -267.5
6575 -255
6576 -250
6577 -255
6578 -250
6579 -260
6580 -272.5
6581 -280
6582 -292.5
6583 -292.5
6584 -300
6585 -297.5
6586 -297.5
6587 -307.5
6588 -312.5
6589 -310
6590 -307.5
6591 -312.5
6592 -300
6593 -265
6594 -240
6595 -197.5
6596 -117.5
6597 -32.5
6598 72.5
6599 185
6600 285
6601 370
6602 407.5
6603 417.5
6604 395
6605 345
6606 262.5
6607 142.5
6608 7.5
6609 -140
6610 -282.5
6611 -392.5
6612 -467.5
6613 -525
6614 -555
6615 -562.5
6616 -552.5
6617 -520
6618 -482.5
6619 -435
6620 -390
6621 -340
6622 -307.5
6623 -277.5
6624 -235
6625 -227.5
6626 -225
6627 -220
6628 -227.5
6629 -217.5
6630 -215
6631 -225
6632 -227.5
6633 -232.5
6634 -242.5
6635 -242.5
6636 -230
6637 -222.5
6638 -220
6639 -227.5
6640 -240
6641 -247.5
6642 -255
6643 -260
6644 -255
6645 -255
6646 -262.5
6647 -270
6648 -282.5
6649 -292.5
6650 -297.5
6651 -300
6652 -297.5
6653 -302.5
6654 -310
6655 -305
6656 -310
6657 -312.5
6658 -310
6659 -320
6660 -322.5
6661 -330
6662 -342.5
6663 -347.5
6664 -360
6665 -375
6666 -380
6667 -385
6668 -385
6669 -380
6670 -382.5
6671 -377.5
6672 -370
6673 -367.5
6674 -360
6675 -345
6676 -345
6677 -347.5
6678 -355
6679 -365
6680 -370
6681 -380
6682 -395
6683 -402.5
6684 -412.5
6685 -425
6686 -422.5
6687 -415
6688 -405
6689 -392.5
6690 -390
6691 -390
6692 -385
6693 -380
6694 -377.5
6695 -385
6696 -395
6697 -405
6698 -410
6699 -405
6700 -392.5
6701 -382.5
6702 -367.5
6703 -362.5
6704 -360
6705 -352.5
6706 -350
6707 -345
6708 -335
6709 -335
6710 -337.5
6711 -340
6712 -347.5
6713 -345
6714 -345
6715 -345
6716 -352.5
6717 -360
6718 -365
6719 -385
6720 -390
6721 -395
6722 -400
6723 -395
6724 -397.5
6725 -392.5
6726 -392.5
6727 -395
6728 -397.5
6729 -397.5
6730 -397.5
6731 -392.5
6732 -380
6733 -375
6734 -375
6735 -370
6736 -365
6737 -370
6738 -367.5
6739 -365
6740 -362.5
6741 -357.5
6742 -360
6743 -367.5
6744 -362.5
6745 -362.5
6746 -362.5
6747 -350
6748 -357.5
6749 -360
6750 -357.5
6751 -380
6752 -390
6753 -395
6754 -412.5
6755 -417.5
6756 -422.5
6757 -432.5
6758 -437.5
6759 -440
6760 -452.5
6761 -460
6762 -460
6763 -467.5
6764 -467.5
6765 -470
6766 -485
6767 -477.5
6768 -462.5
6769 -460
6770 -442.5
6771 -437.5
6772 -452.5
6773 -450
6774 -447.5
6775 -440
6776 -425
6777 -422.5
6778 -437.5
6779 -440
6780 -442.5
6781 -442.5
6782 -420
6783 -415
6784 -422.5
6785 -415
6786 -427.5
6787 -435
6788 -420
6789 -412.5
6790 -410
6791 -402.5
6792 -417.5
6793 -437.5
6794 -450
6795 -460
6796 -460
6797 -445
6798 -445
6799 -452.5
6800 -460
6801 -470
6802 -472.5
6803 -457.5
6804 -437.5
6805 -425
6806 -412.5
6807 -412.5
6808 -420
6809 -425
6810 -430
6811 -432.5
6812 -432.5
6813 -425
6814 -430
6815 -432.5
6816 -427.5
6817 -435
6818 -430
6819 -417.5
6820 -412.5
6821 -400
6822 -382.5
6823 -370
6824 -360
6825 -357.5
6826 -355
6827 -345
6828 -347.5
6829 -340
6830 -320
6831 -307.5
6832 -297.5
6833 -295
6834 -282.5
6835 -255
6836 -247.5
6837 -232.5
6838 -212.5
6839 -215
6840 -212.5
6841 -205
6842 -205
6843 -197.5
6844 -202.5
6845 -215
6846 -220
6847 -225
6848 -232.5
6849 -232.5
6850 -242.5
6851 -260
6852 -285
6853 -310
6854 -337.5
6855 -365
6856 -385
6857 -407.5
6858 -425
6859 -447.5
6860 -465
6861 -480
6862 -502.5
6863 -510
6864 -497.5
6865 -495
6866 -490
6867 -490
6868 -495
6869 -485
6870 -492.5
6871 -485
6872 -465
6873 -457.5
6874 -455
6875 -467.5
6876 -475
6877 -480
6878 -485
6879 -480
6880 -470
6881 -457.5
6882 -455
6883 -457.5
6884 -460
6885 -452.5
6886 -440
6887 -447.5
6888 -447.5
6889 -450
6890 -467.5
6891 -477.5
6892 -485
6893 -487.5
6894 -490
6895 -490
6896 -470
6897 -432.5
6898 -387.5
6899 -335
6900 -257.5
6901 -157.5
6902 -67.5
6903 27.5
6904 125
6905 192.5
6906 232.5
6907 237.5
6908 215
6909 170
6910 80
6911 -32.5
6912 -150
6913 -285
6914 -397.5
6915 -497.5
6916 -575
6917 -615
6918 -635
6919 -630
6920 -610
6921 -577.5
6922 -545
6923 -515
6924 -482.5
6925 -457.5
6926 -442.5
6927 -432.5
6928 -432.5
6929 -432.5
6930 -430
6931 -425
6932 -407.5
6933 -390
6934 -382.5
6935 -372.5
6936 -355
6937 -347.5
6938 -340
6939 -337.5
6940 -332.5
6941 -342.5
6942 -357.5
6943 -377.5
6944 -410
6945 -427.5
6946 -432.5
6947 -420
6948 -402.5
6949 -390
6950 -367.5
6951 -355
6952 -345
6953 -325
6954 -305
6955 -287.5
6956 -287.5
6957 -300
6958 -315
6959 -330
6960 -337.5
6961 -342.5
6962 -342.5
6963 -332.5
6964 -330
6965 -312.5
6966 -302.5
6967 -290
6968 -275
6969 -270
6970 -275
6971 -285
6972 -287.5
6973 -295
6974 -302.5
6975 -310
6976 -320
6977 -320
6978 -320
6979 -315
6980 -307.5
6981 -295
6982 -287.5
6983 -272.5
6984 -260
6985 -250
6986 -232.5
6987 -220
6988 -220
6989 -212.5
6990 -200
6991 -197.5
6992 -192.5
6993 -195
6994 -200
6995 -200
6996 -210
6997 -210
6998 -207.5
6999 -212.5
7000 -210
7001 -212.5
7002 -215
7003 -215
7004 -220
7005 -215
7006 -205
7007 -202.5
7008 -190
7009 -185
7010 -187.5
7011 -177.5
7012 -167.5
7013 -155
7014 -152.5
7015 -147.5
7016 -157.5
7017 -175
7018 -172.5
7019 -182.5
7020 -182.5
7021 -180
7022 -192.5
7023 -175
7024 -170
7025 -165
7026 -145
7027 -140
7028 -132.5
7029 -127.5
7030 -125
7031 -107.5
7032 -102.5
7033 -102.5
7034 -100
7035 -102.5
7036 -107.5
7037 -105
7038 -110
7039 -112.5
7040 -110
7041 -112.5
7042 -112.5
7043 -107.5
7044 -102.5
7045 -92.5
7046 -87.5
7047 -87.5
7048 -75
7049 -72.5
7050 -77.5
7051 -75
7052 -87.5
7053 -110
7054 -117.5
7055 -117.5
7056 -115
7057 -102.5
7058 -105
7059 -105
7060 -100
7061 -112.5
7062 -105
7063 -95
7064 -102.5
7065 -110
7066 -127.5
7067 -145
7068 -152.5
7069 -165
7070 -160
7071 -155
7072 -150
7073 -145
7074 -147.5
7075 -132.5
7076 -117.5
7077 -107.5
7078 -92.5
7079 -82.5
7080 -82.5
7081 -82.5
7082 -85
7083 -87.5
7084 -82.5
7085 -92.5
7086 -92.5
7087 -95
7088 -105
7089 -97.5
7090 -95
7091 -95
7092 -80
7093 -72.5
7094 -67.5
7095 -60
7096 -62.5
7097 -70
7098 -70
7099 -80
7100 -92.5
7101 -87.5
7102 -87.5
7103 -87.5
7104 -77.5
7105 -75
7106 -67.5
7107 -57.5
7108 -52.5
7109 -40
7110 -32.5
7111 -27.5
7112 -27.5
7113 -32.5
7114 -25
7115 -25
7116 -22.5
7117 -10
7118 -7.5
7119 -5
7120 -5
7121 -15
7122 -12.5
7123 -15
7124 -27.5
7125 -25
7126 -27.5
7127 -37.5
7128 -37.5
7129 -30
7130 -17.5
7131 -5
7132 2.5
7133 20
7134 35
7135 45
7136 55
7137 65
7138 75
7139 67.5
7140 57.5
7141 52.5
7142 60
7143 80
7144 107.5
7145 142.5
7146 182.5
7147 220
7148 250
7149 287.5
7150 317.5
7151 332.5
7152 337.5
7153 337.5
7154 312.5
7155 282.5
7156 262.5
7157 232.5
7158 202.5
7159 185
7160 160
7161 152.5
7162 140
7163 115
7164 120
7165 107.5
7166 85
7167 77.5
7168 57.5
7169 47.5
7170 45
7171 47.5
7172 47.5
7173 45
7174 42.5
7175 40
7176 42.5
7177 37.5
7178 40
7179 40
7180 37.5
7181 30
7182 25
7183 17.5
7184 5
7185 5
7186 5
7187 7.5
7188 17.5
7189 15
7190 25
7191 25
7192 22.5
7193 27.5
7194 22.5
7195 12.5
7196 -7.5
7197 -30
7198 -45
7199 -70
7200 -77.5
7201 -75
7202 -75
7203 -57.5
7204 -35
7205 -2.5
7206 42.5
7207 95
7208 165
7209 247.5
7210 335
7211 417.5
7212 507.5
7213 570
7214 605
7215 630
7216 620
7217 595
7218 550
7219 462.5
7220 357.5
7221 227.5
7222 97.5
7223 -5
7224 -87.5
7225 -132.5
7226 -162.5
7227 -177.5
7228 -182.5
7229 -175
7230 -152.5
7231 -115
7232 -70
7233 -30
7234 0
7235 15
7236 35
7237 50
7238 55
7239 70
7240 82.5
7241 87.5
7242 95
7243 97.5
7244 100
7245 100
7246 95
7247 90
7248 87.5
7249 90
7250 102.5
7251 117.5
7252 137.5
7253 160
7254 177.5
7255 195
7256 202.5
7257 217.5
7258 237.5
7259 245
7260 255
7261 242.5
7262 222.5
7263 210
7264 202.5
7265 207.5
7266 217.5
7267 227.5
7268 227.5
7269 237.5
7270 252.5
7271 270
7272 290
7273 297.5
7274 297.5
7275 295
7276 292.5
7277 305
7278 320
7279 340
7280 355
7281 360
7282 372.5
7283 382.5
7284 395
7285 415
7286 420
7287 427.5
7288 427.5
7289 417.5
7290 412.5
7291 410
7292 422.5
7293 427.5
7294 432.5
7295 430
7296 422.5
7297 422.5
7298 420
7299 425
7300 435
7301 447.5
7302 450
7303 457.5
7304 470
7305 477.5
7306 497.5
7307 512.5
7308 520
7309 530
7310 527.5
7311 517.5
7312 510
7313 500
7314 490
7315 490
7316 482.5
7317 480
7318 492.5
7319 502.5
7320 510
7321 522.5
7322 535
7323 535
7324 522.5
7325 517.5
7326 512.5
7327 507.5
7328 500
7329 495
7330 497.5
7331 482.5
7332 472.5
7333 480
7334 482.5
7335 485
7336 510
7337 522.5
7338 532.5
7339 550
7340 550
7341 565
7342 575
7343 575
7344 597.5
7345 607.5
7346 612.5
7347 617.5
7348 600
7349 587.5
7350 575
7351 570
7352 582.5
7353 582.5
7354 585
7355 582.5
7356 572.5
7357 572.5
7358 575
7359 582.5
7360 582.5
7361 577.5
7362 557.5
7363 545
7364 542.5
7365 530
7366 527.5
7367 520
7368 505
7369 500
7370 500
7371 500
7372 505
7373 507.5
7374 510
7375 515
7376 530
7377 532.5
7378 537.5
7379 542.5
7380 532.5
7381 527.5
7382 525
7383 522.5
7384 525
7385 522.5
7386 512.5
7387 510
7388 497.5
7389 485
7390 492.5
7391 495
7392 507.5
7393 522.5
7394 532.5
7395 545
7396 547.5
7397 552.5
7398 570
7399 577.5
7400 577.5
7401 580
7402 577.5
7403 565
7404 547.5
7405 550
7406 550
7407 547.5
7408 562.5
7409 575
7410 580
7411 595
7412 590
7413 597.5
7414 610
7415 592.5
7416 597.5
7417 607.5
7418 587.5
7419 580
7420 572.5
7421 557.5
7422 562.5
7423 562.5
7424 565
7425 582.5
7426 582.5
7427 575
7428 572.5
7429 567.5
7430 557.5
7431 560
7432 552.5
7433 545
7434 540
7435 515
7436 515
7437 530
7438 550
7439 580
7440 602.5
7441 612.5
7442 620
7443 617.5
7444 622.5
7445 640
7446 647.5
7447 655
7448 665
7449 665
7450 680
7451 690
7452 715
7453 740
7454 745
7455 755
7456 760
7457 760
7458 765
7459 762.5
7460 750
7461 740
7462 720
7463 697.5
7464 682.5
7465 650
7466 612.5
7467 575
7468 537.5
7469 505
7470 470
7471 430
7472 405
7473 375
7474 347.5
7475 345
7476 332.5
7477 325
7478 307.5
7479 290
7480 287.5
7481 275
7482 267.5
7483 262.5
7484 247.5
7485 227.5
7486 220
7487 215
7488 210
7489 217.5
7490 212.5
7491 207.5
7492 212.5
7493 207.5
7494 220
7495 225
7496 230
7497 237.5
7498 242.5
7499 245
7500 240
7501 235
7502 212.5
7503 195
7504 172.5
7505 150
7506 140
7507 10
7508 -7.5
7509 -32.5
7510 -45
7511 -47.5
7512 -57.5
7513 -62.5
7514 -67.5
7515 -70
7516 -62.5
7517 -77.5
7518 -82.5
7519 -77.5
7520 -97.5
7521 -102.5
7522 -100
7523 -105
7524 -105
7525 -107.5
7526 -102.5
7527 -100
7528 -97.5
7529 -85
7530 -80
7531 -72.5
7532 -75
7533 -92.5
7534 -107.5
7535 -135
7536 -162.5
7537 -177.5
7538 -195
7539 -210
7540 -215
7541 -222.5
7542 -222.5
7543 -205
7544 -187.5
7545 -145
7546 -85
7547 -17.5
7548 60
7549 145
7550 227.5
7551 280
7552 302.5
7553 300
7554 295
7555 255
7556 185
7557 117.5
7558 17.5
7559 -92.5
7560 -197.5
7561 -282.5
7562 -335
7563 -380
7564 -410
7565 -430
7566 -432.5
7567 -430
7568 -420
7569 -397.5
7570 -385
7571 -380
7572 -365
7573 -342.5
7574 -332.5
7575 -305
7576 -282.5
7577 -282.5
7578 -270
7579 -275
7580 -275
7581 -270
7582 -275
7583 -285
7584 -292.5
7585 -292.5
7586 -295
7587 -290
7588 -290
7589 -297.5
7590 -297.5
7591 -300
7592 -292.5
7593 -287.5
7594 -280
7595 -280
7596 -297.5
7597 -305
7598 -320
7599 -330
7600 -317.5
7601 -317.5
7602 -310
7603 -297.5
7604 -307.5
7605 -310
7606 -302.5
7607 -300
7608 -287.5
7609 -277.5
7610 -280
7611 -280
7612 -290
7613 -302.5
7614 -307.5
7615 -310
7616 -310
7617 -312.5
7618 -307.5
7619 -307.5
7620 -302.5
7621 -292.5
7622 -292.5
7623 -282.5
7624 -272.5
7625 -260
7626 -252.5
7627 -250
7628 -245
7629 -242.5
7630 -237.5
7631 -230
7632 -230
7633 -227.5
7634 -230
7635 -235
7636 -235
7637 -237.5
7638 -242.5
7639 -250
7640 -260
7641 -257.5
7642 -252.5
7643 -255
7644 -255
7645 -250
7646 -245
7647 -237.5
7648 -227.5
7649 -217.5
7650 -205
7651 -207.5
7652 -197.5
7653 -192.5
7654 -192.5
7655 -182.5
7656 -182.5
7657 -180
7658 -175
7659 -170
7660 -167.5
7661 -162.5
7662 -165
7663 -175
7664 -165
7665 -170
7666 -172.5
7667 -165
7668 -162.5
7669 -162.5
7670 -165
7671 -172.5
7672 -175
7673 -167.5
7674 -170
7675 -167.5
7676 -160
7677 -160
7678 -157.5
7679 -152.5
7680 -145
7681 -135
7682 -120
7683 -112.5
7684 -105
7685 -100
7686 -105
7687 -100
7688 -107.5
7689 -117.5
7690 -127.5
7691 -142.5
7692 -152.5
7693 -160
7694 -170
7695 -175
7696 -175
7697 -177.5
7698 -177.5
7699 -172.5
7700 -165
7701 -160
7702 -160
7703 -157.5
7704 -152.5
7705 -152.5
7706 -157.5
7707 -165
7708 -172.5
7709 -172.5
7710 -180
7711 -172.5
7712 -170
7713 -182.5
7714 -190
7715 -207.5
7716 -210
7717 -207.5
7718 -207.5
7719 -207.5
7720 -217.5
7721 -220
7722 -217.5
7723 -215
7724 -200
7725 -185
7726 -177.5
7727 -167.5
7728 -155
7729 -152.5
7730 -157.5
7731 -165
7732 -172.5
7733 -175
7734 -182.5
7735 -185
7736 -182.5
7737 -187.5
7738 -192.5
7739 -195
7740 -187.5
7741 -190
7742 -190
7743 -190
7744 -187.5
7745 -190
7746 -192.5
7747 -182.5
7748 -177.5
7749 -177.5
7750 -170
7751 -160
7752 -147.5
7753 -142.5
7754 -145
7755 -155
7756 -175
7757 -200
7758 -215
7759 -215
7760 -215
7761 -212.5
7762 -205
7763 -202.5
7764 -195
7765 -180
7766 -157.5
7767 -142.5
7768 -132.5
7769 -130
7770 -125
7771 -112.5
7772 -117.5
7773 -115
7774 -105
7775 -90
7776 -77.5
7777 -57.5
7778 -32.5
7779 -10
7780 -5
7781 -5
7782 7.5
7783 15
7784 25
7785 40
7786 52.5
7787 62.5
7788 65
7789 70
7790 67.5
7791 72.5
7792 65
7793 52.5
7794 42.5
7795 5
7796 -15
7797 -37.5
7798 -62.5
7799 -72.5
7800 -87.5
7801 -105
7802 -115
7803 -130
7804 -147.5
7805 -160
7806 -177.5
7807 -210
7808 -225
7809 -245
7810 -272.5
7811 -275
7812 -282.5
7813 -290
7814 -285
7815 -295
7816 -297.5
7817 -292.5
7818 -290
7819 -285
7820 -280
7821 -272.5
7822 -267.5
7823 -267.5
7824 -265
7825 -267.5
7826 -255
7827 -250
7828 -255
7829 -250
7830 -260
7831 -272.5
7832 -280
7833 -292.5
7834 -292.5
7835 -300
7836 -297.5
7837 -297.5
7838 -307.5
7839 -312.5
7840 -310
7841 -307.5
7842 -312.5
7843 -300
7844 -265
7845 -240
7846 -197.5
7847 -117.5
7848 -32.5
7849 72.5
7850 185
7851 285
7852 370
7853 407.5
7854 417.5
7855 395
7856 345
7857 262.5
7858 142.5
7859 7.5
7860 -140
7861 -282.5
7862 -392.5
7863 -467.5
7864 -525
7865 -555
7866 -562.5
7867 -552.5
7868 -520
7869 -482.5
7870 -435
7871 -390
7872 -340
7873 -307.5
7874 -277.5
7875 -235
7876 -227.5
7877 -225
7878 -220
7879 -227.5
7880 -217.5
7881 -215
7882 -225
7883 -227.5
7884 -232.5
7885 -242.5
7886 -242.5
7887 -230
7888 -222.5
7889 -220
7890 -227.5
7891 -240
7892 -247.5
7893 -255
7894 -260
7895 -255
7896 -255
7897 -262.5
7898 -270
7899 -282.5
7900 -292.5
7901 -297.5
7902 -300
7903 -297.5
7904 -302.5
7905 -310
7906 -305
7907 -310
7908 -312.5
7909 -310
7910 -320
7911 -322.5
7912 -330
7913 -342.5
7914 -347.5
7915 -360
7916 -375
7917 -380
7918 -385
7919 -385
7920 -380
7921 -382.5
7922 -377.5
7923 -370
7924 -367.5
7925 -360
7926 -345
7927 -345
7928 -347.5
7929 -355
7930 -365
7931 -370
7932 -380
7933 -395
7934 -402.5
7935 -412.5
7936 -425
7937 -422.5
7938 -415
7939 -405
7940 -392.5
7941 -390
7942 -390
7943 -385
7944 -380
7945 -377.5
7946 -385
7947 -395
7948 -405
7949 -410
7950 -405
7951 -392.5
7952 -382.5
7953 -367.5
7954 -362.5
7955 -360
7956 -352.5
7957 -350
7958 -345
7959 -335
7960 -335
7961 -337.5
7962 -340
7963 -347.5
7964 -345
7965 -345
7966 -345
7967 -352.5
7968 -360
7969 -365
7970 -385
7971 -390
7972 -395
7973 -400
7974 -395
7975 -397.5
7976 -392.5
7977 -392.5
7978 -395
7979 -397.5
7980 -397.5
7981 -397.5
7982 -392.5
7983 -380
7984 -375
7985 -375
7986 -370
7987 -365
7988 -370
7989 -367.5
7990 -365
7991 -362.5
7992 -357.5
7993 -360
7994 -367.5
7995 -362.5
7996 -362.5
7997 -362.5
7998 -350
7999 -357.5
8000 -360
8001 -357.5
8002 -380
8003 -390
8004 -395
8005 -412.5
8006 -417.5
8007 -422.5
8008 -432.5
8009 -437.5
8010 -440
8011 -452.5
8012 -460
8013 -460
8014 -467.5
8015 -467.5
8016 -470
8017 -485
8018 -477.5
8019 -462.5
8020 -460
8021 -442.5
8022 -437.5
8023 -452.5
8024 -450
8025 -447.5
8026 -440
8027 -425
8028 -422.5
8029 -437.5
8030 -440
8031 -442.5
8032 -442.5
8033 -420
8034 -415
8035 -422.5
8036 -415
8037 -427.5
8038 -435
8039 -420
8040 -412.5
8041 -410
8042 -402.5
8043 -417.5
8044 -437.5
8045 -450
8046 -460
8047 -460
8048 -445
8049 -445
8050 -452.5
8051 -460
8052 -470
8053 -472.5
8054 -457.5
8055 -437.5
8056 -425
8057 -412.5
8058 -412.5
8059 -420
8060 -425
8061 -430
8062 -432.5
8063 -432.5
8064 -425
8065 -430
8066 -432.5
8067 -427.5
8068 -435
8069 -430
8070 -417.5
8071 -412.5
8072 -400
8073 -382.5
8074 -370
8075 -360
8076 -357.5
8077 -355
8078 -345
8079 -347.5
8080 -340
8081 -320
8082 -307.5
8083 -297.5
8084 -295
8085 -282.5
8086 -255
8087 -247.5
8088 -232.5
8089 -212.5
8090 -215
8091 -212.5
8092 -205
8093 -205
8094 -197.5
8095 -202.5
8096 -215
8097 -220
8098 -225
8099 -232.5
8100 -232.5
8101 -242.5
8102 -260
8103 -285
8104 -310
8105 -337.5
8106 -365
8107 -385
8108 -407.5
8109 -425
8110 -447.5
8111 -465
8112 -480
8113 -502.5
8114 -510
8115 -497.5
8116 -495
8117 -490
8118 -490
8119 -495
8120 -485
8121 -492.5
8122 -485
8123 -465
8124 -457.5
8125 -455
8126 -467.5
8127 -475
8128 -480
8129 -485
8130 -480
8131 -470
8132 -457.5
8133 -455
8134 -457.5
8135 -460
8136 -452.5
8137 -440
8138 -447.5
8139 -447.5
8140 -450
8141 -467.5
8142 -477.5
8143 -485
8144 -487.5
8145 -490
8146 -490
8147 -470
8148 -432.5
8149 -387.5
8150 -335
8151 -257.5
8152 -157.5
8153 -67.5
8154 27.5
8155 125
8156 192.5
8157 232.5
8158 237.5
8159 215
8160 170
8161 80
8162 -32.5
8163 -150
8164 -285
8165 -397.5
8166 -497.5
8167 -575
8168 -615
8169 -635
8170 -630
8171 -610
8172 -577.5
8173 -545
8174 -515
8175 -482.5
8176 -457.5
8177 -442.5
8178 -432.5
8179 -432.5
8180 -432.5
8181 -430
8182 -425
8183 -407.5
8184 -390
8185 -382.5
8186 -372.5
8187 -355
8188 -347.5
8189 -340
8190 -337.5
8191 -332.5
8192 -342.5
8193 -357.5
8194 -377.5
8195 -410
8196 -427.5
8197 -432.5
8198 -420
8199 -402.5
8200 -390
8201 -367.5
8202 -355
8203 -345
8204 -325
8205 -305
8206 -287.5
8207 -287.5
8208 -300
8209 -315
8210 -330
8211 -337.5
8212 -342.5
8213 -342.5
8214 -332.5
8215 -330
8216 -312.5
8217 -302.5
8218 -290
8219 -275
8220 -270
8221 -275
8222 -285
8223 -287.5
8224 -295
8225 -302.5
8226 -310
8227 -320
8228 -320
8229 -320
8230 -315
8231 -307.5
8232 -295
8233 -287.5
8234 -272.5
8235 -260
8236 -250
8237 -232.5
8238 -220
8239 -220
8240 -212.5
8241 -200
8242 -197.5
8243 -192.5
8244 -195
8245 -200
8246 -200
8247 -210
8248 -210
8249 -207.5
8250 -212.5
8251 -210
8252 -212.5
8253 -215
8254 -215
8255 -220
8256 -215
8257 -205
8258 -202.5
8259 -190
8260 -185
8261 -187.5
8262 -177.5
8263 -167.5
8264 -155
8265 -152.5
8266 -147.5
8267 -157.5
8268 -175
8269 -172.5
8270 -182.5
8271 -182.5
8272 -180
8273 -192.5
8274 -175
8275 -170
8276 -165
8277 -145
8278 -140
8279 -132.5
8280 -127.5
8281 -125
8282 -107.5
8283 -102.5
8284 -102.5
8285 -100
8286 -102.5
8287 -107.5
8288 -105
8289 -110
8290 -112.5
8291 -110
8292 -112.5
8293 -112.5
8294 -107.5
8295 -102.5
8296 -92.5
8297 -87.5
8298 -87.5
8299 -75
8300 -72.5
8301 -77.5
8302 -75
8303 -87.5
8304 -110
8305 -117.5
8306 -117.5
8307 -115
8308 -102.5
8309 -105
8310 -105
8311 -100
8312 -112.5
8313 -105
8314 -95
8315 -102.5
8316 -110
8317 -127.5
8318 -145
8319 -152.5
8320 -165
8321 -160
8322 -155
8323 -150
8324 -145
8325 -147.5
8326 -132.5
8327 -117.5
8328 -107.5
8329 -92.5
8330 -82.5
8331 -82.5
8332 -82.5
8333 -85
8334 -87.5
8335 -82.5
8336 -92.5
8337 -92.5
8338 -95
8339 -105
8340 -97.5
8341 -95
8342 -95
8343 -80
8344 -72.5
8345 -67.5
8346 -60
8347 -62.5
8348 -70
8349 -70
8350 -80
8351 -92.5
8352 -87.5
8353 -87.5
8354 -87.5
8355 -77.5
8356 -75
8357 -67.5
8358 -57.5
8359 -52.5
8360 -40
8361 -32.5
8362 -27.5
8363 -27.5
8364 -32.5
8365 -25
8366 -25
8367 -22.5
8368 -10
8369 -7.5
8370 -5
8371 -5
8372 -15
8373 -12.5
8374 -15
8375 -27.5
8376 -25
8377 -27.5
8378 -37.5
8379 -37.5
8380 -30
8381 -17.5
8382 -5
8383 2.5
8384 20
8385 35
8386 45
8387 55
8388 65
8389 75
8390 67.5
8391 57.5
8392 52.5
8393 60
8394 80
8395 107.5
8396 142.5
8397 182.5
8398 220
8399 250
8400 287.5
8401 317.5
8402 332.5
8403 337.5
8404 337.5
8405 312.5
8406 282.5
8407 262.5
8408 232.5
8409 202.5
8410 185
8411 160
8412 152.5
8413 140
8414 115
8415 120
8416 107.5
8417 85
8418 77.5
8419 57.5
8420 47.5
8421 45
8422 47.5
8423 47.5
8424 45
8425 42.5
8426 40
8427 42.5
8428 37.5
8429 40
8430 40
8431 37.5
8432 30
8433 25
8434 17.5
8435 5
8436 5
8437 5
8438 7.5
8439 17.5
8440 15
8441 25
8442 25
8443 22.5
8444 27.5
8445 22.5
8446 12.5
8447 -7.5
8448 -30
8449 -45
8450 -70
8451 -77.5
8452 -75
8453 -75
8454 -57.5
8455 -35
8456 -2.5
8457 42.5
8458 95
8459 165
8460 247.5
8461 335
8462 417.5
8463 507.5
8464 570
8465 605
8466 630
8467 620
8468 595
8469 550
8470 462.5
8471 357.5
8472 227.5
8473 97.5
8474 -5
8475 -87.5
8476 -132.5
8477 -162.5
8478 -177.5
8479 -182.5
8480 -175
8481 -152.5
8482 -115
8483 -70
8484 -30
8485 0
8486 15
8487 35
8488 50
8489 55
8490 70
8491 82.5
8492 87.5
8493 95
8494 97.5
8495 100
8496 100
8497 95
8498 90
8499 87.5
8500 90
8501 102.5
8502 117.5
8503 137.5
8504 160
8505 177.5
8506 195
8507 202.5
8508 217.5
8509 237.5
8510 245
8511 255
8512 242.5
8513 222.5
8514 210
8515 202.5
8516 207.5
8517 217.5
8518 227.5
8519 227.5
8520 237.5
8521 252.5
8522 270
8523 290
8524 297.5
8525 297.5
8526 295
8527 292.5
8528 305
8529 320
8530 340
8531 355
8532 360
8533 372.5
8534 382.5
8535 395
8536 415
8537 420
8538 427.5
8539 427.5
8540 417.5
8541 412.5
8542 410
8543 422.5
8544 427.5
8545 432.5
8546 430
8547 422.5
8548 422.5
8549 420
8550 425
8551 435
8552 447.5
8553 450
8554 457.5
8555 470
8556 477.5
8557 497.5
8558 512.5
8559 520
8560 530
8561 527.5
8562 517.5
8563 510
8564 500
8565 490
8566 490
8567 482.5
8568 480
8569 492.5
8570 502.5
8571 510
8572 522.5
8573 535
8574 535
8575 522.5
8576 517.5
8577 512.5
8578 507.5
8579 500
8580 495
8581 497.5
8582 482.5
8583 472.5
8584 480
8585 482.5
8586 485
8587 510
8588 522.5
8589 532.5
8590 550
8591 550
8592 565
8593 575
8594 575
8595 597.5
8596 607.5
8597 612.5
8598 617.5
8599 600
8600 587.5
8601 575
8602 570
8603 582.5
8604 582.5
8605 585
8606 582.5
8607 572.5
8608 572.5
8609 575
8610 582.5
8611 582.5
8612 577.5
8613 557.5
8614 545
8615 542.5
8616 530
8617 527.5
8618 520
8619 505
8620 500
8621 500
8622 500
8623 505
8624 507.5
8625 510
8626 515
8627 530
8628 532.5
8629 537.5
8630 542.5
8631 532.5
8632 527.5
8633 525
8634 522.5
8635 525
8636 522.5
8637 512.5
8638 510
8639 497.5
8640 485
8641 492.5
8642 495
8643 507.5
8644 522.5
8645 532.5
8646 545
8647 547.5
8648 552.5
8649 570
8650 577.5
8651 577.5
8652 580
8653 577.5
8654 565
8655 547.5
8656 550
8657 550
8658 547.5
8659 562.5
8660 575
8661 580
8662 595
8663 590
8664 597.5
8665 610
8666 592.5
8667 597.5
8668 607.5
8669 587.5
8670 580
8671 572.5
8672 557.5
8673 562.5
8674 562.5
8675 565
8676 582.5
8677 582.5
8678 575
8679 572.5
8680 567.5
8681 557.5
8682 560
8683 552.5
8684 545
8685 540
8686 515
8687 515
8688 530
8689 550
8690 580
8691 602.5
8692 612.5
8693 620
8694 617.5
8695 622.5
8696 640
8697 647.5
8698 655
8699 665
8700 665
8701 680
8702 690
8703 715
8704 740
8705 745
8706 755
8707 760
8708 760
8709 765
8710 762.5
8711 750
8712 740
8713 720
8714 697.5
8715 682.5
8716 650
8717 612.5
8718 575
8719 537.5
8720 505
8721 470
8722 430
8723 405
8724 375
8725 347.5
8726 345
8727 332.5
8728 325
8729 307.5
8730 290
8731 287.5
8732 275
8733 267.5
8734 262.5
8735 247.5
8736 227.5
8737 220
8738 215
8739 210
8740 217.5
8741 212.5
8742 207.5
8743 212.5
8744 207.5
8745 220
8746 225
8747 230
8748 237.5
8749 242.5
8750 245
8751 240
8752 235
8753 212.5
8754 195
8755 172.5
8756 150
8757 140
8758 10
8759 -7.5
8760 -32.5
8761 -45
8762 -47.5
8763 -57.5
8764 -62.5
8765 -67.5
8766 -70
8767 -62.5
8768 -77.5
8769 -82.5
8770 -77.5
8771 -97.5
8772 -102.5
8773 -100
8774 -105
8775 -105
8776 -107.5
8777 -102.5
8778 -100
8779 -97.5
8780 -85
8781 -80
8782 -72.5
8783 -75
8784 -92.5
8785 -107.5
8786 -135
8787 -162.5
8788 -177.5
8789 -195
8790 -210
8791 -215
8792 -222.5
8793 -222.5
8794 -205
8795 -187.5
8796 -145
8797 -85
8798 -17.5
8799 60
8800 145
8801 227.5
8802 280
8803 302.5
8804 300
8805 295
8806 255
8807 185
8808 117.5
8809 17.5
8810 -92.5
8811 -197.5
8812 -282.5
8813 -335
8814 -380
8815 -410
8816 -430
8817 -432.5
8818 -430
8819 -420
8820 -397.5
8821 -385
8822 -380
8823 -365
8824 -342.5
8825 -332.5
8826 -305
8827 -282.5
8828 -282.5
8829 -270
8830 -275
8831 -275
8832 -270
8833 -275
8834 -285
8835 -292.5
8836 -292.5
8837 -295
8838 -290
8839 -290
8840 -297.5
8841 -297.5
8842 -300
8843 -292.5
8844 -287.5
8845 -280
8846 -280
8847 -297.5
8848 -305
8849 -320
8850 -330
8851 -317.5
8852 -317.5
8853 -310
8854 -297.5
8855 -307.5
8856 -310
8857 -302.5
8858 -300
8859 -287.5
8860 -277.5
8861 -280
8862 -280
8863 -290
8864 -302.5
8865 -307.5
8866 -310
8867 -310
8868 -312.5
8869 -307.5
8870 -307.5
8871 -302.5
8872 -292.5
8873 -292.5
8874 -282.5
8875 -272.5
8876 -260
8877 -252.5
8878 -250
8879 -245
8880 -242.5
8881 -237.5
8882 -230
8883 -230
8884 -227.5
8885 -230
8886 -235
8887 -235
8888 -237.5
8889 -242.5
8890 -250
8891 -260
8892 -257.5
8893 -252.5
8894 -255
8895 -255
8896 -250
8897 -245
8898 -237.5
8899 -227.5
8900 -217.5
8901 -205
8902 -207.5
8903 -197.5
8904 -192.5
8905 -192.5
8906 -182.5
8907 -182.5
8908 -180
8909 -175
8910 -170
8911 -167.5
8912 -162.5
8913 -165
8914 -175
8915 -165
8916 -170
8917 -172.5
8918 -165
8919 -162.5
8920 -162.5
8921 -165
8922 -172.5
8923 -175
8924 -167.5
8925 -170
8926 -167.5
8927 -160
8928 -160
8929 -157.5
8930 -152.5
8931 -145
8932 -135
8933 -120
8934 -112.5
8935 -105
8936 -100
8937 -105
8938 -100
8939 -107.5
8940 -117.5
8941 -127.5
8942 -142.5
8943 -152.5
8944 -160
8945 -170
8946 -175
8947 -175
8948 -177.5
8949 -177.5
8950 -172.5
8951 -165
8952 -160
8953 -160
8954 -157.5
8955 -152.5
8956 -152.5
8957 -157.5
8958 -165
8959 -172.5
8960 -172.5
8961 -180
8962 -172.5
8963 -170
8964 -182.5
8965 -190
8966 -207.5
8967 -210
8968 -207.5
8969 -207.5
8970 -207.5
8971 -217.5
8972 -220
8973 -217.5
8974 -215
8975 -200
8976 -185
8977 -177.5
8978 -167.5
8979 -155
8980 -152.5
8981 -157.5
8982 -165
8983 -172.5
8984 -175
8985 -182.5
8986 -185
8987 -182.5
8988 -187.5
8989 -192.5
8990 -195
8991 -187.5
8992 -190
8993 -190
8994 -190
8995 -187.5
8996 -190
8997 -192.5
8998 -182.5
8999 -177.5
9000 -177.5
9001 -170
9002 -160
9003 -147.5
9004 -142.5
9005 -145
9006 -155
9007 -175
9008 -200
9009 -215
9010 -215
9011 -215
9012 -212.5
9013 -205
9014 -202.5
9015 -195
9016 -180
9017 -157.5
9018 -142.5
9019 -132.5
9020 -130
9021 -125
9022 -112.5
9023 -117.5
9024 -115
9025 -105
9026 -90
9027 -77.5
9028 -57.5
9029 -32.5
9030 -10
9031 -5
9032 -5
9033 7.5
9034 15
9035 25
9036 40
9037 52.5
9038 62.5
9039 65
9040 70
9041 67.5
9042 72.5
9043 65
9044 52.5
9045 42.5
9046 5
9047 -15
9048 -37.5
9049 -62.5
9050 -72.5
9051 -87.5
9052 -105
9053 -115
9054 -130
9055 -147.5
9056 -160
9057 -177.5
9058 -210
9059 -225
9060 -245
9061 -272.5
9062 -275
9063 -282.5
9064 -290
9065 -285
9066 -295
9067 -297.5
9068 -292.5
9069 -290
9070 -285
9071 -280
9072 -272.5
9073 -267.5
9074 -267.5
9075 -265
9076 -267.5
9077 -255
9078 -250
9079 -255
9080 -250
9081 -260
9082 -272.5
9083 -280
9084 -292.5
9085 -292.5
9086 -300
9087 -297.5
9088 -297.5
9089 -307.5
9090 -312.5
9091 -310
9092 -307.5
9093 -312.5
9094 -300
9095 -265
9096 -240
9097 -197.5
9098 -117.5
9099 -32.5
9100 72.5
9101 185
9102 285
9103 370
9104 407.5
9105 417.5
9106 395
9107 345
9108 262.5
9109 142.5
9110 7.5
9111 -140
9112 -282.5
9113 -392.5
9114 -467.5
9115 -525
9116 -555
9117 -562.5
9118 -552.5
9119 -520
9120 -482.5
9121 -435
9122 -390
9123 -340
9124 -307.5
9125 -277.5
9126 -235
9127 -227.5
9128 -225
9129 -220
9130 -227.5
9131 -217.5
9132 -215
9133 -225
9134 -227.5
9135 -232.5
9136 -242.5
9137 -242.5
9138 -230
9139 -222.5
9140 -220
9141 -227.5
9142 -240
9143 -247.5
9144 -255
9145 -260
9146 -255
9147 -255
9148 -262.5
9149 -270
9150 -282.5
9151 -292.5
9152 -297.5
9153 -300
9154 -297.5
9155 -302.5
9156 -310
9157 -305
9158 -310
9159 -312.5
9160 -310
9161 -320
9162 -322.5
9163 -330
9164 -342.5
9165 -347.5
9166 -360
9167 -375
9168 -380
9169 -385
9170 -385
9171 -380
9172 -382.5
9173 -377.5
9174 -370
9175 -367.5
9176 -360
9177 -345
9178 -345
9179 -347.5
9180 -355
9181 -365
9182 -370
9183 -380
9184 -395
9185 -402.5
9186 -412.5
9187 -425
9188 -422.5
9189 -415
9190 -405
9191 -392.5
9192 -390
9193 -390
9194 -385
9195 -380
9196 -377.5
9197 -385
9198 -395
9199 -405
9200 -410
9201 -405
9202 -392.5
9203 -382.5
9204 -367.5
9205 -362.5
9206 -360
9207 -352.5
9208 -350
9209 -345
9210 -335
9211 -335
9212 -337.5
9213 -340
9214 -347.5
9215 -345
9216 -345
9217 -345
9218 -352.5
9219 -360
9220 -365
9221 -385
9222 -390
9223 -395
9224 -400
9225 -395
9226 -397.5
9227 -392.5
9228 -392.5
9229 -395
9230 -397.5
9231 -397.5
9232 -397.5
9233 -392.5
9234 -380
9235 -375
9236 -375
9237 -370
9238 -365
9239 -370
9240 -367.5
9241 -365
9242 -362.5
9243 -357.5
9244 -360
9245 -367.5
9246 -362.5
9247 -362.5
9248 -362.5
9249 -350
9250 -357.5
9251 -360
9252 -357.5
9253 -380
9254 -390
9255 -395
9256 -412.5
9257 -417.5
9258 -422.5
9259 -432.5
9260 -437.5
9261 -440
9262 -452.5
9263 -460
9264 -460
9265 -467.5
9266 -467.5
9267 -470
9268 -485
9269 -477.5
9270 -462.5
9271 -460
9272 -442.5
9273 -437.5
9274 -452.5
9275 -450
9276 -447.5
9277 -440
9278 -425
9279 -422.5
9280 -437.5
9281 -440
9282 -442.5
9283 -442.5
9284 -420
9285 -415
9286 -422.5
9287 -415
9288 -427.5
9289 -435
9290 -420
9291 -412.5
9292 -410
9293 -402.5
9294 -417.5
9295 -437.5
9296 -450
9297 -460
9298 -460
9299 -445
9300 -445
9301 -452.5
9302 -460
9303 -470
9304 -472.5
9305 -457.5
9306 -437.5
9307 -425
9308 -412.5
9309 -412.5
9310 -420
9311 -425
9312 -430
9313 -432.5
9314 -432.5
9315 -425
9316 -430
9317 -432.5
9318 -427.5
9319 -435
9320 -430
9321 -417.5
9322 -412.5
9323 -400
9324 -382.5
9325 -370
9326 -360
9327 -357.5
9328 -355
9329 -345
9330 -347.5
9331 -340
9332 -320
9333 -307.5
9334 -297.5
9335 -295
9336 -282.5
9337 -255
9338 -247.5
9339 -232.5
9340 -212.5
9341 -215
9342 -212.5
9343 -205
9344 -205
9345 -197.5
9346 -202.5
9347 -215
9348 -220
9349 -225
9350 -232.5
9351 -232.5
9352 -242.5
9353 -260
9354 -285
9355 -310
9356 -337.5
9357 -365
9358 -385
9359 -407.5
9360 -425
9361 -447.5
9362 -465
9363 -480
9364 -502.5
9365 -510
9366 -497.5
9367 -495
9368 -490
9369 -490
9370 -495
9371 -485
9372 -492.5
9373 -485
9374 -465
9375 -457.5
9376 -455
9377 -467.5
9378 -475
9379 -480
9380 -485
9381 -480
9382 -470
9383 -457.5
9384 -455
9385 -457.5
9386 -460
9387 -452.5
9388 -440
9389 -447.5
9390 -447.5
9391 -450
9392 -467.5
9393 -477.5
9394 -485
9395 -487.5
9396 -490
9397 -490
9398 -470
9399 -432.5
9400 -387.5
9401 -335
9402 -257.5
9403 -157.5
9404 -67.5
9405 27.5
9406 125
9407 192.5
9408 232.5
9409 237.5
9410 215
9411 170
9412 80
9413 -32.5
9414 -150
9415 -285
9416 -397.5
9417 -497.5
9418 -575
9419 -615
9420 -635
9421 -630
9422 -610
9423 -577.5
9424 -545
9425 -515
9426 -482.5
9427 -457.5
9428 -442.5
9429 -432.5
9430 -432.5
9431 -432.5
9432 -430
9433 -425
9434 -407.5
9435 -390
9436 -382.5
9437 -372.5
9438 -355
9439 -347.5
9440 -340
9441 -337.5
9442 -332.5
9443 -342.5
9444 -357.5
9445 -377.5
9446 -410
9447 -427.5
9448 -432.5
9449 -420
9450 -402.5
9451 -390
9452 -367.5
9453 -355
9454 -345
9455 -325
9456 -305
9457 -287.5
9458 -287.5
9459 -300
9460 -315
9461 -330
9462 -337.5
9463 -342.5
9464 -342.5
9465 -332.5
9466 -330
9467 -312.5
9468 -302.5
9469 -290
9470 -275
9471 -270
9472 -275
9473 -285
9474 -287.5
9475 -295
9476 -302.5
9477 -310
9478 -320
9479 -320
9480 -320
9481 -315
9482 -307.5
9483 -295
9484 -287.5
9485 -272.5
9486 -260
9487 -250
9488 -232.5
9489 -220
9490 -220
9491 -212.5
9492 -200
9493 -197.5
9494 -192.5
9495 -195
9496 -200
9497 -200
9498 -210
9499 -210
9500 -207.5
9501 -212.5
9502 -210
9503 -212.5
9504 -215
9505 -215
9506 -220
9507 -215
9508 -205
9509 -202.5
9510 -190
9511 -185
9512 -187.5
9513 -177.5
9514 -167.5
9515 -155
9516 -152.5
9517 -147.5
9518 -157.5
9519 -175
9520 -172.5
9521 -182.5
9522 -182.5
9523 -180
9524 -192.5
9525 -175
9526 -170
9527 -165
9528 -145
9529 -140
9530 -132.5
9531 -127.5
9532 -125
9533 -107.5
9534 -102.5
9535 -102.5
9536 -100
9537 -102.5
9538 -107.5
9539 -105
9540 -110
9541 -112.5
9542 -110
9543 -112.5
9544 -112.5
9545 -107.5
9546 -102.5
9547 -92.5
9548 -87.5
9549 -87.5
9550 -75
9551 -72.5
9552 -77.5
9553 -75
9554 -87.5
9555 -110
9556 -117.5
9557 -117.5
9558 -115
9559 -102.5
9560 -105
9561 -105
9562 -100
9563 -112.5
9564 -105
9565 -95
9566 -102.5
9567 -110
9568 -127.5
9569 -145
9570 -152.5
9571 -165
9572 -160
9573 -155
9574 -150
9575 -145
9576 -147.5
9577 -132.5
9578 -117.5
9579 -107.5
9580 -92.5
9581 -82.5
9582 -82.5
9583 -82.5
9584 -85
9585 -87.5
9586 -82.5
9587 -92.5
9588 -92.5
9589 -95
9590 -105
9591 -97.5
9592 -95
9593 -95
9594 -80
9595 -72.5
9596 -67.5
9597 -60
9598 -62.5
9599 -70
9600 -70
9601 -80
9602 -92.5
9603 -87.5
9604 -87.5
9605 -87.5
9606 -77.5
9607 -75
9608 -67.5
9609 -57.5
9610 -52.5
9611 -40
9612 -32.5
9613 -27.5
9614 -27.5
9615 -32.5
9616 -25
9617 -25
9618 -22.5
9619 -10
9620 -7.5
9621 -5
9622 -5
9623 -15
9624 -12.5
9625 -15
9626 -27.5
9627 -25
9628 -27.5
9629 -37.5
9630 -37.5
9631 -30
9632 -17.5
9633 -5
9634 2.5
9635 20
9636 35
9637 45
9638 55
9639 65
9640 75
9641 67.5
9642 57.5
9643 52.5
9644 60
9645 80
9646 107.5
9647 142.5
9648 182.5
9649 220
9650 250
9651 287.5
9652 317.5
9653 332.5
9654 337.5
9655 337.5
9656 312.5
9657 282.5
9658 262.5
9659 232.5
9660 202.5
9661 185
9662 160
9663 152.5
9664 140
9665 115
9666 120
9667 107.5
9668 85
9669 77.5
9670 57.5
9671 47.5
9672 45
9673 47.5
9674 47.5
9675 45
9676 42.5
9677 40
9678 42.5
9679 37.5
9680 40
9681 40
9682 37.5
9683 30
9684 25
9685 17.5
9686 5
9687 5
9688 5
9689 7.5
9690 17.5
9691 15
9692 25
9693 25
9694 22.5
9695 27.5
9696 22.5
9697 12.5
9698 -7.5
9699 -30
9700 -45
9701 -70
9702 -77.5
9703 -75
9704 -75
9705 -57.5
9706 -35
9707 -2.5
9708 42.5
9709 95
9710 165
9711 247.5
9712 335
9713 417.5
9714 507.5
9715 570
9716 605
9717 630
9718 620
9719 595
9720 550
9721 462.5
9722 357.5
9723 227.5
9724 97.5
9725 -5
9726 -87.5
9727 -132.5
9728 -162.5
9729 -177.5
9730 -182.5
9731 -175
9732 -152.5
9733 -115
9734 -70
9735 -30
9736 0
9737 15
9738 35
9739 50
9740 55
9741 70
9742 82.5
9743 87.5
9744 95
9745 97.5
9746 100
9747 100
9748 95
9749 90
9750 87.5
9751 90
9752 102.5
9753 117.5
9754 137.5
9755 160
9756 177.5
9757 195
9758 202.5
9759 217.5
9760 237.5
9761 245
9762 255
9763 242.5
9764 222.5
9765 210
9766 202.5
9767 207.5
9768 217.5
9769 227.5
9770 227.5
9771 237.5
9772 252.5
9773 270
9774 290
9775 297.5
9776 297.5
9777 295
9778 292.5
9779 305
9780 320
9781 340
9782 355
9783 360
9784 372.5
9785 382.5
9786 395
9787 415
9788 420
9789 427.5
9790 427.5
9791 417.5
9792 412.5
9793 410
9794 422.5
9795 427.5
9796 432.5
9797 430
9798 422.5
9799 422.5
9800 420
9801 425
9802 435
9803 447.5
9804 450
9805 457.5
9806 470
9807 477.5
9808 497.5
9809 512.5
9810 520
9811 530
9812 527.5
9813 517.5
9814 510
9815 500
9816 490
9817 490
9818 482.5
9819 480
9820 492.5
9821 502.5
9822 510
9823 522.5
9824 535
9825 535
9826 522.5
9827 517.5
9828 512.5
9829 507.5
9830 500
9831 495
9832 497.5
9833 482.5
9834 472.5
9835 480
9836 482.5
9837 485
9838 510
9839 522.5
9840 532.5
9841 550
9842 550
9843 565
9844 575
9845 575
9846 597.5
9847 607.5
9848 612.5
9849 617.5
9850 600
9851 587.5
9852 575
9853 570
9854 582.5
9855 582.5
9856 585
9857 582.5
9858 572.5
9859 572.5
9860 575
9861 582.5
9862 582.5
9863 577.5
9864 557.5
9865 545
9866 542.5
9867 530
9868 527.5
9869 520
9870 505
9871 500
9872 500
9873 500
9874 505
9875 507.5
9876 510
9877 515
9878 530
9879 532.5
9880 537.5
9881 542.5
9882 532.5
9883 527.5
9884 525
9885 522.5
9886 525
9887 522.5
9888 512.5
9889 510
9890 497.5
9891 485
9892 492.5
9893 495
9894 507.5
9895 522.5
9896 532.5
9897 545
9898 547.5
9899 552.5
9900 570
9901 577.5
9902 577.5
9903 580
9904 577.5
9905 565
9906 547.5
9907 550
9908 550
9909 547.5
9910 562.5
9911 575
9912 580
9913 595
9914 590
9915 597.5
9916 610
9917 592.5
9918 597.5
9919 607.5
9920 587.5
9921 580
9922 572.5
9923 557.5
9924 562.5
9925 562.5
9926 565
9927 582.5
9928 582.5
9929 575
9930 572.5
9931 567.5
9932 557.5
9933 560
9934 552.5
9935 545
9936 540
9937 515
9938 515
9939 530
9940 550
9941 580
9942 602.5
9943 612.5
9944 620
9945 617.5
9946 622.5
9947 640
9948 647.5
9949 655
9950 665
9951 665
9952 680
9953 690
9954 715
9955 740
9956 745
9957 755
9958 760
9959 760
9960 765
9961 762.5
9962 750
9963 740
9964 720
9965 697.5
9966 682.5
9967 650
9968 612.5
9969 575
9970 537.5
9971 505
9972 470
9973 430
9974 405
9975 375
9976 347.5
9977 345
9978 332.5
9979 325
9980 307.5
9981 290
9982 287.5
9983 275
9984 267.5
9985 262.5
9986 247.5
9987 227.5
9988 220
9989 215
9990 210
9991 217.5
9992 212.5
9993 207.5
9994 212.5
9995 207.5
9996 220
9997 225
9998 230
9999 237.5
10000 242.5
10001 245
10002 240
10003 235
10004 212.5
10005 195
10006 172.5
10007 150
10008 140
10009 10
10010 -7.5
10011 -32.5
10012 -45
10013 -47.5
10014 -57.5
10015 -62.5
10016 -67.5
10017 -70
10018 -62.5
10019 -77.5
10020 -82.5
10021 -77.5
10022 -97.5
10023 -102.5
10024 -100
10025 -105
10026 -105
10027 -107.5
10028 -102.5
10029 -100
10030 -97.5
10031 -85
10032 -80
10033 -72.5
10034 -75
10035 -92.5
10036 -107.5
10037 -135
10038 -162.5
10039 -177.5
10040 -195
10041 -210
10042 -215
10043 -222.5
10044 -222.5
10045 -205
10046 -187.5
10047 -145
10048 -85
10049 -17.5
10050 60
10051 145
10052 227.5
10053 280
10054 302.5
10055 300
10056 295
10057 255
10058 185
10059 117.5
10060 17.5
10061 -92.5
10062 -197.5
10063 -282.5
10064 -335
10065 -380
10066 -410
10067 -430
10068 -432.5
10069 -430
10070 -420
10071 -397.5
10072 -385
10073 -380
10074 -365
10075 -342.5
10076 -332.5
10077 -305
10078 -282.5
10079 -282.5
10080 -270
10081 -275
10082 -275
10083 -270
10084 -275
10085 -285
10086 -292.5
10087 -292.5
10088 -295
10089 -290
10090 -290
10091 -297.5
10092 -297.5
10093 -300
10094 -292.5
10095 -287.5
10096 -280
10097 -280
10098 -297.5
10099 -305
10100 -320
10101 -330
10102 -317.5
10103 -317.5
10104 -310
10105 -297.5
10106 -307.5
10107 -310
10108 -302.5
10109 -300
10110 -287.5
10111 -277.5
10112 -280
10113 -280
10114 -290
10115 -302.5
10116 -307.5
10117 -310
10118 -310
10119 -312.5
10120 -307.5
10121 -307.5
10122 -302.5
10123 -292.5
10124 -292.5
10125 -282.5
10126 -272.5
10127 -260
10128 -252.5
10129 -250
10130 -245
10131 -242.5
10132 -237.5
10133 -230
10134 -230
10135 -227.5
10136 -230
10137 -235
10138 -235
10139 -237.5
10140 -242.5
10141 -250
10142 -260
10143 -257.5
10144 -252.5
10145 -255
10146 -255
10147 -250
10148 -245
10149 -237.5
10150 -227.5
10151 -217.5
10152 -205
10153 -207.5
10154 -197.5
10155 -192.5
10156 -192.5
10157 -182.5
10158 -182.5
10159 -180
10160 -175
10161 -170
10162 -167.5
10163 -162.5
10164 -165
10165 -175
10166 -165
10167 -170
10168 -172.5
10169 -165
10170 -162.5
10171 -162.5
10172 -165
10173 -172.5
10174 -175
10175 -167.5
10176 -170
10177 -167.5
10178 -160
10179 -160
10180 -157.5
10181 -152.5
10182 -145
10183 -135
10184 -120
10185 -112.5
10186 -105
10187 -100
10188 -105
10189 -100
10190 -107.5
10191 -117.5
10192 -127.5
10193 -142.5
10194 -152.5
10195 -160
10196 -170
10197 -175
10198 -175
10199 -177.5
10200 -177.5
10201 -172.5
10202 -165
10203 -160
10204 -160
10205 -157.5
10206 -152.5
10207 -152.5
10208 -157.5
10209 -165
10210 -172.5
10211 -172.5
10212 -180
10213 -172.5
10214 -170
10215 -182.5
10216 -190
10217 -207.5
10218 -210
10219 -207.5
10220 -207.5
10221 -207.5
10222 -217.5
10223 -220
10224 -217.5
10225 -215
10226 -200
10227 -185
10228 -177.5
10229 -167.5
10230 -155
10231 -152.5
10232 -157.5
10233 -165
10234 -172.5
10235 -175
10236 -182.5
10237 -185
10238 -182.5
10239 -187.5
10240 -192.5
10241 -195
10242 -187.5
10243 -190
10244 -190
10245 -190
10246 -187.5
10247 -190
10248 -192.5
10249 -182.5
10250 -177.5
10251 -177.5
10252 -170
10253 -160
10254 -147.5
10255 -142.5
10256 -145
10257 -155
10258 -175
10259 -200
10260 -215
10261 -215
10262 -215
10263 -212.5
10264 -205
10265 -202.5
10266 -195
10267 -180
10268 -157.5
10269 -142.5
10270 -132.5
10271 -130
10272 -125
10273 -112.5
10274 -117.5
10275 -115
10276 -105
10277 -90
10278 -77.5
10279 -57.5
10280 -32.5
10281 -10
10282 -5
10283 -5
10284 7.5
10285 15
10286 25
10287 40
10288 52.5
10289 62.5
10290 65
10291 70
10292 67.5
10293 72.5
10294 65
10295 52.5
10296 42.5
10297 5
10298 -15
10299 -37.5
10300 -62.5
10301 -72.5
10302 -87.5
10303 -105
10304 -115
10305 -130
10306 -147.5
10307 -160
10308 -177.5
10309 -210
10310 -225
10311 -245
10312 -272.5
10313 -275
10314 -282.5
10315 -290
10316 -285
10317 -295
10318 -297.5
10319 -292.5
10320 -290
10321 -285
10322 -280
10323 -272.5
10324 -267.5
10325 -267.5
10326 -265
10327 -267.5
10328 -255
10329 -250
10330 -255
10331 -250
10332 -260
10333 -272.5
10334 -280
10335 -292.5
10336 -292.5
10337 -300
10338 -297.5
10339 -297.5
10340 -307.5
10341 -312.5
10342 -310
10343 -307.5
10344 -312.5
10345 -300
10346 -265
10347 -240
10348 -197.5
10349 -117.5
10350 -32.5
10351 72.5
10352 185
10353 285
10354 370
10355 407.5
10356 417.5
10357 395
10358 345
10359 262.5
10360 142.5
10361 7.5
10362 -140
10363 -282.5
10364 -392.5
10365 -467.5
10366 -525
10367 -555
10368 -562.5
10369 -552.5
10370 -520
10371 -482.5
10372 -435
10373 -390
10374 -340
10375 -307.5
10376 -277.5
10377 -235
10378 -227.5
10379 -225
10380 -220
10381 -227.5
10382 -217.5
10383 -215
10384 -225
10385 -227.5
10386 -232.5
10387 -242.5
10388 -242.5
10389 -230
10390 -222.5
10391 -220
10392 -227.5
10393 -240
10394 -247.5
10395 -255
10396 -260
10397 -255
10398 -255
10399 -262.5
10400 -270
10401 -282.5
10402 -292.5
10403 -297.5
10404 -300
10405 -297.5
10406 -302.5
10407 -310
10408 -305
10409 -310
10410 -312.5
10411 -310
10412 -320
10413 -322.5
10414 -330
10415 -342.5
10416 -347.5
10417 -360
10418 -375
10419 -380
10420 -385
10421 -385
10422 -380
10423 -382.5
10424 -377.5
10425 -370
10426 -367.5
10427 -360
10428 -345
10429 -345
10430 -347.5
10431 -355
10432 -365
10433 -370
10434 -380
10435 -395
10436 -402.5
10437 -412.5
10438 -425
10439 -422.5
10440 -415
10441 -405
10442 -392.5
10443 -390
10444 -390
10445 -385
10446 -380
10447 -377.5
10448 -385
10449 -395
10450 -405
10451 -410
10452 -405
10453 -392.5
10454 -382.5
10455 -367.5
10456 -362.5
10457 -360
10458 -352.5
10459 -350
10460 -345
10461 -335
10462 -335
10463 -337.5
10464 -340
10465 -347.5
10466 -345
10467 -345
10468 -345
10469 -352.5
10470 -360
10471 -365
10472 -385
10473 -390
10474 -395
10475 -400
10476 -395
10477 -397.5
10478 -392.5
10479 -392.5
10480 -395
10481 -397.5
10482 -397.5
10483 -397.5
10484 -392.5
10485 -380
10486 -375
10487 -375
10488 -370
10489 -365
10490 -370
10491 -367.5
10492 -365
10493 -362.5
10494 -357.5
10495 -360
10496 -367.5
10497 -362.5
10498 -362.5
10499 -362.5
10500 -350
10501 -357.5
10502 -360
10503 -357.5
10504 -380
10505 -390
10506 -395
10507 -412.5
10508 -417.5
10509 -422.5
10510 -432.5
10511 -437.5
10512 -440
10513 -452.5
10514 -460
10515 -460
10516 -467.5
10517 -467.5
10518 -470
10519 -485
10520 -477.5
10521 -462.5
10522 -460
10523 -442.5
10524 -437.5
10525 -452.5
10526 -450
10527 -447.5
10528 -440
10529 -425
10530 -422.5
10531 -437.5
10532 -440
10533 -442.5
10534 -442.5
10535 -420
10536 -415
10537 -422.5
10538 -415
10539 -427.5
10540 -435
10541 -420
10542 -412.5
10543 -410
10544 -402.5
10545 -417.5
10546 -437.5
10547 -450
10548 -460
10549 -460
10550 -445
10551 -445
10552 -452.5
10553 -460
10554 -470
10555 -472.5
10556 -457.5
10557 -437.5
10558 -425
10559 -412.5
10560 -412.5
10561 -420
10562 -425
10563 -430
10564 -432.5
10565 -432.5
10566 -425
10567 -430
10568 -432.5
10569 -427.5
10570 -435
10571 -430
10572 -417.5
10573 -412.5
10574 -400
10575 -382.5
10576 -370
10577 -360
10578 -357.5
10579 -355
10580 -345
10581 -347.5
10582 -340
10583 -320
10584 -307.5
10585 -297.5
10586 -295
10587 -282.5
10588 -255
10589 -247.5
10590 -232.5
10591 -212.5
10592 -215
10593 -212.5
10594 -205
10595 -205
10596 -197.5
10597 -202.5
10598 -215
10599 -220
10600 -225
10601 -232.5
10602 -232.5
10603 -242.5
10604 -260
10605 -285
10606 -310
10607 -337.5
10608 -365
10609 -385
10610 -407.5
10611 -425
10612 -447.5
10613 -465
10614 -480
10615 -502.5
10616 -510
10617 -497.5
10618 -495
10619 -490
10620 -490
10621 -495
10622 -485
10623 -492.5
10624 -485
10625 -465
10626 -457.5
10627 -455
10628 -467.5
10629 -475
10630 -480
10631 -485
10632 -480
10633 -470
10634 -457.5
10635 -455
10636 -457.5
10637 -460
10638 -452.5
10639 -440
10640 -447.5
10641 -447.5
10642 -450
10643 -467.5
10644 -477.5
10645 -485
10646 -487.5
10647 -490
10648 -490
10649 -470
10650 -432.5
10651 -387.5
10652 -335
10653 -257.5
10654 -157.5
10655 -67.5
10656 27.5
10657 125
10658 192.5
10659 232.5
10660 237.5
10661 215
10662 170
10663 80
10664 -32.5
10665 -150
10666 -285
10667 -397.5
10668 -497.5
10669 -575
10670 -615
10671 -635
10672 -630
10673 -610
10674 -577.5
10675 -545
10676 -515
10677 -482.5
10678 -457.5
10679 -442.5
10680 -432.5
10681 -432.5
10682 -432.5
10683 -430
10684 -425
10685 -407.5
10686 -390
10687 -382.5
10688 -372.5
10689 -355
10690 -347.5
10691 -340
10692 -337.5
10693 -332.5
10694 -342.5
10695 -357.5
10696 -377.5
10697 -410
10698 -427.5
10699 -432.5
10700 -420
10701 -402.5
10702 -390
10703 -367.5
10704 -355
10705 -345
10706 -325
10707 -305
10708 -287.5
10709 -287.5
10710 -300
10711 -315
10712 -330
10713 -337.5
10714 -342.5
10715 -342.5
10716 -332.5
10717 -330
10718 -312.5
10719 -302.5
10720 -290
10721 -275
10722 -270
10723 -275
10724 -285
10725 -287.5
10726 -295
10727 -302.5
10728 -310
10729 -320
10730 -320
10731 -320
10732 -315
10733 -307.5
10734 -295
10735 -287.5
10736 -272.5
10737 -260
10738 -250
10739 -232.5
10740 -220
10741 -220
10742 -212.5
10743 -200
10744 -197.5
10745 -192.5
10746 -195
10747 -200
10748 -200
10749 -210
10750 -210
10751 -207.5
10752 -212.5
10753 -210
10754 -212.5
10755 -215
10756 -215
10757 -220
10758 -215
10759 -205
10760 -202.5
10761 -190
10762 -185
10763 -187.5
10764 -177.5
10765 -167.5
10766 -155
10767 -152.5
10768 -147.5
10769 -157.5
10770 -175
10771 -172.5
10772 -182.5
10773 -182.5
10774 -180
10775 -192.5
10776 -175
10777 -170
10778 -165
10779 -145
10780 -140
10781 -132.5
10782 -127.5
10783 -125
10784 -107.5
10785 -102.5
10786 -102.5
10787 -100
10788 -102.5
10789 -107.5
10790 -105
10791 -110
10792 -112.5
10793 -110
10794 -112.5
10795 -112.5
10796 -107.5
10797 -102.5
10798 -92.5
10799 -87.5
10800 -87.5
10801 -75
10802 -72.5
10803 -77.5
10804 -75
10805 -87.5
10806 -110
10807 -117.5
10808 -117.5
10809 -115
10810 -102.5
10811 -105
10812 -105
10813 -100
10814 -112.5
10815 -105
10816 -95
10817 -102.5
10818 -110
10819 -127.5
10820 -145
10821 -152.5
10822 -165
10823 -160
10824 -155
10825 -150
10826 -145
10827 -147.5
10828 -132.5
10829 -117.5
10830 -107.5
10831 -92.5
10832 -82.5
10833 -82.5
10834 -82.5
10835 -85
10836 -87.5
10837 -82.5
10838 -92.5
10839 -92.5
10840 -95
10841 -105
10842 -97.5
10843 -95
10844 -95
10845 -80
10846 -72.5
10847 -67.5
10848 -60
10849 -62.5
10850 -70
10851 -70
10852 -80
10853 -92.5
10854 -87.5
10855 -87.5
10856 -87.5
10857 -77.5
10858 -75
10859 -67.5
10860 -57.5
10861 -52.5
10862 -40
10863 -32.5
10864 -27.5
10865 -27.5
10866 -32.5
10867 -25
10868 -25
10869 -22.5
10870 -10
10871 -7.5
10872 -5
10873 -5
10874 -15
10875 -12.5
10876 -15
10877 -27.5
10878 -25
10879 -27.5
10880 -37.5
10881 -37.5
10882 -30
10883 -17.5
10884 -5
10885 2.5
10886 20
10887 35
10888 45
10889 55
10890 65
10891 75
10892 67.5
10893 57.5
10894 52.5
10895 60
10896 80
10897 107.5
10898 142.5
10899 182.5
10900 220
10901 250
10902 287.5
10903 317.5
10904 332.5
10905 337.5
10906 337.5
10907 312.5
10908 282.5
10909 262.5
10910 232.5
10911 202.5
10912 185
10913 160
10914 152.5
10915 140
10916 115
10917 120
10918 107.5
10919 85
10920 77.5
10921 57.5
10922 47.5
10923 45
10924 47.5
10925 47.5
10926 45
10927 42.5
10928 40
10929 42.5
10930 37.5
10931 40
10932 40
10933 37.5
10934 30
10935 25
10936 17.5
10937 5
10938 5
10939 5
10940 7.5
10941 17.5
10942 15
10943 25
10944 25
10945 22.5
10946 27.5
10947 22.5
10948 12.5
10949 -7.5
10950 -30
10951 -45
10952 -70
10953 -77.5
10954 -75
10955 -75
10956 -57.5
10957 -35
10958 -2.5
10959 42.5
10960 95
10961 165
10962 247.5
10963 335
10964 417.5
10965 507.5
10966 570
10967 605
10968 630
10969 620
10970 595
10971 550
10972 462.5
10973 357.5
10974 227.5
10975 97.5
10976 -5
10977 -87.5
10978 -132.5
10979 -162.5
10980 -177.5
10981 -182.5
10982 -175
10983 -152.5
10984 -115
10985 -70
10986 -30
10987 0
10988 15
10989 35
10990 50
10991 55
10992 70
10993 82.5
10994 87.5
10995 95
10996 97.5
10997 100
10998 100
10999 95
11000 90
11001 87.5
11002 90
11003 102.5
11004 117.5
11005 137.5
11006 160
11007 177.5
11008 195
11009 202.5
11010 217.5
11011 237.5
11012 245
11013 255
11014 242.5
11015 222.5
11016 210
11017 202.5
11018 207.5
11019 217.5
11020 227.5
11021 227.5
11022 237.5
11023 252.5
11024 270
11025 290
11026 297.5
11027 297.5
11028 295
11029 292.5
11030 305
11031 320
11032 340
11033 355
11034 360
11035 372.5
11036 382.5
11037 395
11038 415
11039 420
11040 427.5
11041 427.5
11042 417.5
11043 412.5
11044 410
11045 422.5
11046 427.5
11047 432.5
11048 430
11049 422.5
11050 422.5
11051 420
11052 425
11053 435
11054 447.5
11055 450
11056 457.5
11057 470
11058 477.5
11059 497.5
11060 512.5
11061 520
11062 530
11063 527.5
11064 517.5
11065 510
11066 500
11067 490
11068 490
11069 482.5
11070 480
11071 492.5
11072 502.5
11073 510
11074 522.5
11075 535
11076 535
11077 522.5
11078 517.5
11079 512.5
11080 507.5
11081 500
11082 495
11083 497.5
11084 482.5
11085 472.5
11086 480
11087 482.5
11088 485
11089 510
11090 522.5
11091 532.5
11092 550
11093 550
11094 565
11095 575
11096 575
11097 597.5
11098 607.5
11099 612.5
11100 617.5
11101 600
11102 587.5
11103 575
11104 570
11105 582.5
11106 582.5
11107 585
11108 582.5
11109 572.5
11110 572.5
11111 575
11112 582.5
11113 582.5
11114 577.5
11115 557.5
11116 545
11117 542.5
11118 530
11119 527.5
11120 520
11121 505
11122 500
11123 500
11124 500
11125 505
11126 507.5
11127 510
11128 515
11129 530
11130 532.5
11131 537.5
11132 542.5
11133 532.5
11134 527.5
11135 525
11136 522.5
11137 525
11138 522.5
11139 512.5
11140 510
11141 497.5
11142 485
11143 492.5
11144 495
11145 507.5
11146 522.5
11147 532.5
11148 545
11149 547.5
11150 552.5
11151 570
11152 577.5
11153 577.5
11154 580
11155 577.5
11156 565
11157 547.5
11158 550
11159 550
11160 547.5
11161 562.5
11162 575
11163 580
11164 595
11165 590
11166 597.5
11167 610
11168 592.5
11169 597.5
11170 607.5
11171 587.5
11172 580
11173 572.5
11174 557.5
11175 562.5
11176 562.5
11177 565
11178 582.5
11179 582.5
11180 575
11181 572.5
11182 567.5
11183 557.5
11184 560
11185 552.5
11186 545
11187 540
11188 515
11189 515
11190 530
11191 550
11192 580
11193 602.5
11194 612.5
11195 620
11196 617.5
11197 622.5
11198 640
11199 647.5
11200 655
11201 665
11202 665
11203 680
11204 690
11205 715
11206 740
11207 745
11208 755
11209 760
11210 760
11211 765
11212 762.5
11213 750
11214 740
11215 720
11216 697.5
11217 682.5
11218 650
11219 612.5
11220 575
11221 537.5
11222 505
11223 470
11224 430
11225 405
11226 375
11227 347.5
11228 345
11229 332.5
11230 325
11231 307.5
11232 290
11233 287.5
11234 275
11235 267.5
11236 262.5
11237 247.5
11238 227.5
11239 220
11240 215
11241 210
11242 217.5
11243 212.5
11244 207.5
11245 212.5
11246 207.5
11247 220
11248 225
11249 230
11250 237.5
11251 242.5
11252 245
11253 240
11254 235
11255 212.5
11256 195
11257 172.5
11258 150
11259 140
11260 10
11261 -7.5
11262 -32.5
11263 -45
11264 -47.5
11265 -57.5
11266 -62.5
11267 -67.5
11268 -70
11269 -62.5
11270 -77.5
11271 -82.5
11272 -77.5
11273 -97.5
11274 -102.5
11275 -100
11276 -105
11277 -105
11278 -107.5
11279 -102.5
11280 -100
11281 -97.5
11282 -85
11283 -80
11284 -72.5
11285 -75
11286 -92.5
11287 -107.5
11288 -135
11289 -162.5
11290 -177.5
11291 -195
11292 -210
11293 -215
11294 -222.5
11295 -222.5
11296 -205
11297 -187.5
11298 -145
11299 -85
11300 -17.5
11301 60
11302 145
11303 227.5
11304 280
11305 302.5
11306 300
11307 295
11308 255
11309 185
11310 117.5
11311 17.5
11312 -92.5
11313 -197.5
11314 -282.5
11315 -335
11316 -380
11317 -410
11318 -430
11319 -432.5
11320 -430
11321 -420
11322 -397.5
11323 -385
11324 -380
11325 -365
11326 -342.5
11327 -332.5
11328 -305
11329 -282.5
11330 -282.5
11331 -270
11332 -275
11333 -275
11334 -270
11335 -275
11336 -285
11337 -292.5
11338 -292.5
11339 -295
11340 -290
11341 -290
11342 -297.5
11343 -297.5
11344 -300
11345 -292.5
11346 -287.5
11347 -280
11348 -280
11349 -297.5
11350 -305
11351 -320
11352 -330
11353 -317.5
11354 -317.5
11355 -310
11356 -297.5
11357 -307.5
11358 -310
11359 -302.5
11360 -300
11361 -287.5
11362 -277.5
11363 -280
11364 -280
11365 -290
11366 -302.5
11367 -307.5
11368 -310
11369 -310
11370 -312.5
11371 -307.5
11372 -307.5
11373 -302.5
11374 -292.5
11375 -292.5
11376 -282.5
11377 -272.5
11378 -260
11379 -252.5
11380 -250
11381 -245
11382 -242.5
11383 -237.5
11384 -230
11385 -230
11386 -227.5
11387 -230
11388 -235
11389 -235
11390 -237.5
11391 -242.5
11392 -250
11393 -260
11394 -257.5
11395 -252.5
11396 -255
11397 -255
11398 -250
