samplenr	I	II	V1	V2	V3	V4	V5	V6
0	40555	40885	0	0	0	0	0	0
1	40697.5	41035	0	0	0	0	0	0
2	40797.5	41137.5	0	0	0	0	0	0
3	40847.5	41192.5	0	0	0	0	0	0
4	40842.5	41195	0	0	0	0	0	0
5	40805	41157.5	0	0	0	0	0	0
6	40755	41110	0	0	0	0	0	0
7	40647.5	41010	0	0	0	0	0	0
8	40485	40847.5	0	0	0	0	0	0
9	40282.5	40657.5	0	0	0	0	0	0
10	40090	40480	0	0	0	0	0	0
11	39905	40285	0	0	0	0	0	0
12	39712.5	40090	0	0	0	0	0	0
13	39557.5	39932.5	0	0	0	0	0	0
14	39405	39767.5	0	0	0	0	0	0
15	39257.5	39620	0	0	0	0	0	0
16	39137.5	39492.5	0	0	0	0	0	0
17	39002.5	39355	0	0	0	0	0	0
18	38880	39242.5	0	0	0	0	0	0
19	38797.5	39150	0	0	0	0	0	0
20	38707.5	39052.5	0	0	0	0	0	0
21	38627.5	38980	0	0	0	0	0	0
22	38570	38920	0	0	0	0	0	0
23	38502.5	38852.5	0	0	0	0	0	0
24	38460	38817.5	0	0	0	0	0	0
25	38437.5	38795	0	0	0	0	0	0
26	38395	38757.5	0	0	0	0	0	0
27	38365	38732.5	0	0	0	0	0	0
28	38352.5	38710	0	0	0	0	0	0
29	38300	38660	0	0	0	0	0	0
30	38240	38602.5	0	0	0	0	0	0
31	38187.5	38545	0	0	0	0	0	0
32	38112.5	38472.5	0	0	0	0	0	0
33	38062.5	38422.5	0	0	0	0	0	0
34	38015	38370	0	0	0	0	0	0
35	37947.5	38302.5	0	0	0	0	0	0
36	37895	38245	0	0	0	0	0	0
37	37830	38175	0	0	0	0	0	0
38	37770	38110	0	0	0	0	0	0
39	37735	38070	0	0	0	0	0	0
40	37685	38017.5	0	0	0	0	0	0
41	37635	37965	0	0	0	0	0	0
42	37607.5	37937.5	0	0	0	0	0	0
43	37557.5	37887.5	0	0	0	0	0	0
44	37520	37847.5	0	0	0	0	0	0
45	37477.5	37800	0	0	0	0	0	0
46	37430	37745	0	0	0	0	0	0
47	37402.5	37715	0	0	0	0	0	0
48	37340	37647.5	0	0	0	0	0	0
49	37252.5	37555	0	0	0	0	0	0
50	37172.5	37477.5	0	0	0	0	0	0
51	37122.5	37427.5	0	0	0	0	0	0
52	37057.5	37355	0	0	0	0	0	0
53	36987.5	37287.5	0	0	0	0	0	0
54	36950	37240	0	0	0	0	0	0
55	36892.5	37180	0	0	0	0	0	0
56	36840	37127.5	0	0	0	0	0	0
57	36795	37072.5	0	0	0	0	0	0
58	36740	37020	0	0	0	0	0	0
59	36740	37012.5	0	0	0	0	0	0
60	36745	37012.5	0	0	0	0	0	0
61	36705	36985	0	0	0	0	0	0
62	36680	36962.5	0	0	0	0	0	0
63	36627.5	36915	0	0	0	0	0	0
64	36532.5	36835	0	0	0	0	0	0
65	36455	36767.5	0	0	0	0	0	0
66	36357.5	36680	0	0	0	0	0	0
67	36262.5	36587.5	0	0	0	0	0	0
68	36170	36495	0	0	0	0	0	0
69	36045	36380	0	0	0	0	0	0
70	35920	36247.5	0	0	0	0	0	0
71	35797.5	36117.5	0	0	0	0	0	0
72	35677.5	36000	0	0	0	0	0	0
73	35562.5	35877.5	0	0	0	0	0	0
74	35452.5	35762.5	0	0	0	0	0	0
75	35355	35655	0	0	0	0	0	0
76	35257.5	35550	0	0	0	0	0	0
77	35150	35447.5	0	0	0	0	0	0
78	35040	35337.5	0	0	0	0	0	0
79	34927.5	35225	0	0	0	0	0	0
80	34810	35115	0	0	0	0	0	0
81	34692.5	34992.5	0	0	0	0	0	0
82	34577.5	34870	0	0	0	0	0	0
83	34475	34757.5	0	0	0	0	0	0
84	34385	34655	0	0	0	0	0	0
85	34285	34552.5	0	0	0	0	0	0
86	34207.5	34467.5	0	0	0	0	0	0
87	34145	34395	0	0	0	0	0	0
88	34067.5	34315	0	0	0	0	0	0
89	34000	34242.5	0	0	0	0	0	0
90	33920	34162.5	0	0	0	0	0	0
91	33850	34095	0	0	0	0	0	0
92	33777.5	34025	0	0	0	0	0	0
93	33695	33955	0	0	0	0	0	0
94	33615	33882.5	0	0	0	0	0	0
95	33517.5	33792.5	0	0	0	0	0	0
96	33432.5	33712.5	0	0	0	0	0	0
97	33337.5	33610	0	0	0	0	0	0
98	33242.5	33515	0	0	0	0	0	0
99	33170	33435	0	0	0	0	0	0
100	33085	33335	0	0	0	0	0	0
101	32997.5	33247.5	0	0	0	0	0	0
102	32910	33165	0	0	0	0	0	0
103	32827.5	33080	0	0	0	0	0	0
104	32742.5	33000	0	0	0	0	0	0
105	32650	32915	0	0	0	0	0	0
106	32555	32832.5	0	0	0	0	0	0
107	32460	32755	0	0	0	0	0	0
108	32365	32677.5	0	0	0	0	0	0
109	32282.5	32610	0	0	0	0	0	0
110	32210	32547.5	0	0	0	0	0	0
111	32145	32495	0	0	0	0	0	0
112	32087.5	32435	0	0	0	0	0	0
113	32025	32375	0	0	0	0	0	0
114	31975	32335	0	0	0	0	0	0
115	31920	32282.5	0	0	0	0	0	0
116	31855	32222.5	0	0	0	0	0	0
117	31767.5	32137.5	0	0	0	0	0	0
118	31660	32037.5	0	0	0	0	0	0
119	31540	31935	0	0	0	0	0	0
120	31400	31810	0	0	0	0	0	0
121	31252.5	31675	0	0	0	0	0	0
122	31100	31545	0	0	0	0	0	0
123	30940	31397.5	0	0	0	0	0	0
124	30755	31217.5	0	0	0	0	0	0
125	30535	31002.5	0	0	0	0	0	0
126	30295	30760	0	0	0	0	0	0
127	30007.5	30472.5	0	0	0	0	0	0
128	29692.5	30145	0	0	0	0	0	0
129	29357.5	29797.5	0	0	0	0	0	0
130	28987.5	29405	0	0	0	0	0	0
131	28572.5	28967.5	0	0	0	0	0	0
132	28100	28472.5	0	0	0	0	0	0
133	27577.5	27925	0	0	0	0	0	0
134	26992.5	27325	0	0	0	0	0	0
135	26350	26660	0	0	0	0	0	0
136	25660	25942.5	0	0	0	0	0	0
137	24902.5	25170	0	0	0	0	0	0
138	24097.5	24342.5	0	0	0	0	0	0
139	23137.5	23370	0	0	0	0	0	0
140	21977.5	22202.5	0	0	0	0	0	0
141	20655	20862.5	0	0	0	0	0	0
142	19142.5	19345	0	0	0	0	0	0
143	17455	17650	0	0	0	0	0	0
144	15615	15797.5	0	0	0	0	0	0
145	13610	13790	0	0	0	0	0	0
146	11475	11650	0	0	0	0	0	0
147	9290	9457.5	0	0	0	0	0	0
148	7050	7215	0	0	0	0	0	0
149	4867.5	5017.5	0	0	0	0	0	0
150	2800	2950	0	0	0	0	0	0
151	812.5	970	0	0	0	0	0	0
152	-1012.5	-867.5	0	0	0	0	0	0
153	-2725	-2577.5	0	0	0	0	0	0
154	-4250	-4110	0	0	0	0	0	0
155	-5565	-5435	0	0	0	0	0	0
156	-6735	-6595	0	0	0	0	0	0
157	-7740	-7602.5	0	0	0	0	0	0
158	-8652.5	-8512.5	0	0	0	0	0	0
159	-9472.5	-9322.5	0	0	0	0	0	0
160	-10182.5	-10037.5	0	0	0	0	0	0
161	-10857.5	-10705	0	0	0	0	0	0
162	-11465	-11312.5	0	0	0	0	0	0
163	-12015	-11860	0	0	0	0	0	0
164	-12545	-12372.5	0	0	0	0	0	0
165	-13025	-12850	0	0	0	0	0	0
166	-13475	-13290	0	0	0	0	0	0
167	-13872.5	-13677.5	0	0	0	0	0	0
168	-14225	-14032.5	0	0	0	0	0	0
169	-14560	-14375	0	0	0	0	0	0
170	-14872.5	-14695	0	0	0	0	0	0
171	-15152.5	-14982.5	0	0	0	0	0	0
172	-15397.5	-15235	0	0	0	0	0	0
173	-15625	-15475	0	0	0	0	0	0
174	-15840	-15702.5	0	0	0	0	0	0
175	-16027.5	-15897.5	0	0	0	0	0	0
176	-16207.5	-16082.5	0	0	0	0	0	0
177	-16400	-16270	0	0	0	0	0	0
178	-16577.5	-16437.5	0	0	0	0	0	0
179	-16747.5	-16585	0	0	0	0	0	0
180	-16897.5	-16720	0	0	0	0	0	0
181	-17017.5	-16822.5	0	0	0	0	0	0
182	-17122.5	-16912.5	0	0	0	0	0	0
183	-17220	-16997.5	0	0	0	0	0	0
184	-17297.5	-17047.5	0	0	0	0	0	0
185	-17360	-17077.5	0	0	0	0	0	0
186	-17427.5	-17092.5	0	0	0	0	0	0
187	-17482.5	-17092.5	0	0	0	0	0	0
188	-17540	-17097.5	0	0	0	0	0	0
189	-17600	-17102.5	0	0	0	0	0	0
190	-17665	-17132.5	0	0	0	0	0	0
191	-17752.5	-17205	0	0	0	0	0	0
192	-17840	-17282.5	0	0	0	0	0	0
193	-17915	-17357.5	0	0	0	0	0	0
194	-18002.5	-17472.5	0	0	0	0	0	0
195	-18097.5	-17622.5	0	0	0	0	0	0
196	-18177.5	-17785	0	0	0	0	0	0
197	-18267.5	-17970	0	0	0	0	0	0
198	-18352.5	-18145	0	0	0	0	0	0
199	-18420	-18305	0	0	0	0	0	0
200	-18495	-18450	0	0	0	0	0	0
201	-18557.5	-18555	0	0	0	0	0	0
202	-18622.5	-18660	0	0	0	0	0	0
203	-18705	-18765	0	0	0	0	0	0
204	-18790	-18845	0	0	0	0	0	0
205	-18862.5	-18897.5	0	0	0	0	0	0
206	-18937.5	-18945	0	0	0	0	0	0
207	-18990	-18957.5	0	0	0	0	0	0
208	-19007.5	-18947.5	0	0	0	0	0	0
209	-19055	-18962.5	0	0	0	0	0	0
210	-19077.5	-18962.5	0	0	0	0	0	0
211	-19107.5	-18972.5	0	0	0	0	0	0
212	-19147.5	-18992.5	0	0	0	0	0	0
213	-19170	-19002.5	0	0	0	0	0	0
214	-19220	-19040	0	0	0	0	0	0
215	-19257.5	-19072.5	0	0	0	0	0	0
216	-19302.5	-19102.5	0	0	0	0	0	0
217	-19345	-19147.5	0	0	0	0	0	0
218	-19400	-19200	0	0	0	0	0	0
219	-19462.5	-19255	0	0	0	0	0	0
220	-19502.5	-19300	0	0	0	0	0	0
221	-19565	-19352.5	0	0	0	0	0	0
222	-19615	-19395	0	0	0	0	0	0
223	-19635	-19422.5	0	0	0	0	0	0
224	-19655	-19445	0	0	0	0	0	0
225	-19665	-19462.5	0	0	0	0	0	0
226	-19670	-19475	0	0	0	0	0	0
227	-19705	-19507.5	0	0	0	0	0	0
228	-19737.5	-19532.5	0	0	0	0	0	0
229	-19760	-19555	0	0	0	0	0	0
230	-19785	-19582.5	0	0	0	0	0	0
231	-19790	-19590	0	0	0	0	0	0
232	-19795	-19592.5	0	0	0	0	0	0
233	-19800	-19600	0	0	0	0	0	0
234	-19810	-19600	0	0	0	0	0	0
235	-19810	-19597.5	0	0	0	0	0	0
236	-19820	-19610	0	0	0	0	0	0
237	-19817.5	-19610	0	0	0	0	0	0
238	-19787.5	-19590	0	0	0	0	0	0
239	-19785	-19587.5	0	0	0	0	0	0
240	-19775	-19570	0	0	0	0	0	0
241	-19762.5	-19567.5	0	0	0	0	0	0
242	-19767.5	-19575	0	0	0	0	0	0
243	-19762.5	-19567.5	0	0	0	0	0	0
244	-19770	-19580	0	0	0	0	0	0
245	-19767.5	-19575	0	0	0	0	0	0
246	-19745	-19550	0	0	0	0	0	0
247	-19732.5	-19530	0	0	0	0	0	0
248	-19727.5	-19517.5	0	0	0	0	0	0
249	-19702.5	-19500	0	0	0	0	0	0
250	-19685	-19480	0	0	0	0	0	0
251	-19687.5	-19470	0	0	0	0	0	0
252	-19672.5	-19455	0	0	0	0	0	0
253	-19652.5	-19430	0	0	0	0	0	0
254	-19635	-19412.5	0	0	0	0	0	0
255	-19622.5	-19407.5	0	0	0	0	0	0
256	-19615	-19402.5	0	0	0	0	0	0
257	-19607.5	-19402.5	0	0	0	0	0	0
258	-19592.5	-19390	0	0	0	0	0	0
259	-19592.5	-19385	0	0	0	0	0	0
260	-19590	-19385	0	0	0	0	0	0
261	-19572.5	-19372.5	0	0	0	0	0	0
262	-19565	-19365	0	0	0	0	0	0
263	-19570	-19372.5	0	0	0	0	0	0
264	-19562.5	-19357.5	0	0	0	0	0	0
265	-19545	-19342.5	0	0	0	0	0	0
266	-19540	-19337.5	0	0	0	0	0	0
267	-19520	-19322.5	0	0	0	0	0	0
268	-19505	-19310	0	0	0	0	0	0
269	-19505	-19302.5	0	0	0	0	0	0
270	-19482.5	-19277.5	0	0	0	0	0	0
271	-19460	-19255	0	0	0	0	0	0
272	-19450	-19240	0	0	0	0	0	0
273	-19407.5	-19202.5	0	0	0	0	0	0
274	-19375	-19172.5	0	0	0	0	0	0
275	-19355	-19147.5	0	0	0	0	0	0
276	-19317.5	-19110	0	0	0	0	0	0
277	-19312.5	-19092.5	0	0	0	0	0	0
278	-19295	-19070	0	0	0	0	0	0
279	-19267.5	-19042.5	0	0	0	0	0	0
280	-19245	-19017.5	0	0	0	0	0	0
281	-19215	-18985	0	0	0	0	0	0
282	-19185	-18950	0	0	0	0	0	0
283	-19157.5	-18917.5	0	0	0	0	0	0
284	-19140	-18895	0	0	0	0	0	0
285	-19107.5	-18867.5	0	0	0	0	0	0
286	-19067.5	-18827.5	0	0	0	0	0	0
287	-19032.5	-18792.5	0	0	0	0	0	0
288	-18982.5	-18745	0	0	0	0	0	0
289	-18937.5	-18705	0	0	0	0	0	0
290	-18907.5	-18675	0	0	0	0	0	0
291	-18875	-18645	0	0	0	0	0	0
292	-18837.5	-18615	0	0	0	0	0	0
293	-18810	-18587.5	0	0	0	0	0	0
294	-18775	-18560	0	0	0	0	0	0
295	-18727.5	-18520	0	0	0	0	0	0
296	-18700	-18495	0	0	0	0	0	0
297	-18660	-18467.5	0	0	0	0	0	0
298	-18612.5	-18427.5	0	0	0	0	0	0
299	-18582.5	-18405	0	0	0	0	0	0
300	-18530	-18362.5	0	0	0	0	0	0
301	-18472.5	-18317.5	0	0	0	0	0	0
302	-18430	-18282.5	0	0	0	0	0	0
303	-18372.5	-18232.5	0	0	0	0	0	0
304	-18327.5	-18195	0	0	0	0	0	0
305	-18305	-18170	0	0	0	0	0	0
306	-18270	-18140	0	0	0	0	0	0
307	-18250	-18120	0	0	0	0	0	0
308	-18230	-18102.5	0	0	0	0	0	0
309	-18192.5	-18077.5	0	0	0	0	0	0
310	-18172.5	-18060	0	0	0	0	0	0
311	-18162.5	-18042.5	0	0	0	0	0	0
312	-18152.5	-18030	0	0	0	0	0	0
313	-18147.5	-18020	0	0	0	0	0	0
314	-18135	-18005	0	0	0	0	0	0
315	-18115	-17985	0	0	0	0	0	0
316	-18082.5	-17945	0	0	0	0	0	0
317	-18050	-17910	0	0	0	0	0	0
318	-18025	-17875	0	0	0	0	0	0
319	-18002.5	-17835	0	0	0	0	0	0
320	-17990	-17812.5	0	0	0	0	0	0
321	-17970	-17787.5	0	0	0	0	0	0
322	-17952.5	-17765	0	0	0	0	0	0
323	-17940	-17752.5	0	0	0	0	0	0
324	-17925	-17735	0	0	0	0	0	0
325	-17920	-17722.5	0	0	0	0	0	0
326	-17907.5	-17715	0	0	0	0	0	0
327	-17890	-17702.5	0	0	0	0	0	0
328	-17862.5	-17685	0	0	0	0	0	0
329	-17840	-17670	0	0	0	0	0	0
330	-17820	-17652.5	0	0	0	0	0	0
331	-17790	-17635	0	0	0	0	0	0
332	-17772.5	-17615	0	0	0	0	0	0
333	-17742.5	-17582.5	0	0	0	0	0	0
334	-17712.5	-17552.5	0	0	0	0	0	0
335	-17670	-17505	0	0	0	0	0	0
336	-17612.5	-17442.5	0	0	0	0	0	0
337	-17555	-17382.5	0	0	0	0	0	0
338	-17495	-17320	0	0	0	0	0	0
339	-17427.5	-17255	0	0	0	0	0	0
340	-17335	-17167.5	0	0	0	0	0	0
341	-17262.5	-17097.5	0	0	0	0	0	0
342	-17180	-17020	0	0	0	0	0	0
343	-17087.5	-16932.5	0	0	0	0	0	0
344	-17017.5	-16865	0	0	0	0	0	0
345	-16945	-16802.5	0	0	0	0	0	0
346	-16900	-16760	0	0	0	0	0	0
347	-16862.5	-16720	0	0	0	0	0	0
348	-16822.5	-16677.5	0	0	0	0	0	0
349	-16807.5	-16655	0	0	0	0	0	0
350	-16790	-16632.5	0	0	0	0	0	0
351	-16765	-16602.5	0	0	0	0	0	0
352	-16760	-16590	0	0	0	0	0	0
353	-16740	-16575	0	0	0	0	0	0
354	-16722.5	-16567.5	0	0	0	0	0	0
355	-16715	-16557.5	0	0	0	0	0	0
356	-16692.5	-16542.5	0	0	0	0	0	0
357	-16692.5	-16545	0	0	0	0	0	0
358	-16685	-16540	0	0	0	0	0	0
359	-16670	-16527.5	0	0	0	0	0	0
360	-16675	-16527.5	0	0	0	0	0	0
361	-16665	-16520	0	0	0	0	0	0
362	-16650	-16505	0	0	0	0	0	0
363	-16650	-16497.5	0	0	0	0	0	0
364	-16645	-16482.5	0	0	0	0	0	0
365	-16645	-16477.5	0	0	0	0	0	0
366	-16642.5	-16475	0	0	0	0	0	0
367	-16635	-16472.5	0	0	0	0	0	0
368	-16632.5	-16472.5	0	0	0	0	0	0
369	-16630	-16482.5	0	0	0	0	0	0
370	-16625	-16487.5	0	0	0	0	0	0
371	-16615	-16477.5	0	0	0	0	0	0
372	-16607.5	-16477.5	0	0	0	0	0	0
373	-16600	-16475	0	0	0	0	0	0
374	-16590	-16470	0	0	0	0	0	0
375	-16592.5	-16470	0	0	0	0	0	0
376	-16585	-16465	0	0	0	0	0	0
377	-16582.5	-16457.5	0	0	0	0	0	0
378	-16585	-16455	0	0	0	0	0	0
379	-16580	-16442.5	0	0	0	0	0	0
380	-16590	-16437.5	0	0	0	0	0	0
381	-16607.5	-16455	0	0	0	0	0	0
382	-16627.5	-16467.5	0	0	0	0	0	0
383	-16652.5	-16480	0	0	0	0	0	0
384	-16662.5	-16492.5	0	0	0	0	0	0
385	-16655	-16487.5	0	0	0	0	0	0
386	-16657.5	-16490	0	0	0	0	0	0
387	-16647.5	-16492.5	0	0	0	0	0	0
388	-16630	-16482.5	0	0	0	0	0	0
389	-16635	-16495	0	0	0	0	0	0
390	-16620	-16487.5	0	0	0	0	0	0
391	-16617.5	-16485	0	0	0	0	0	0
392	-16612.5	-16487.5	0	0	0	0	0	0
393	-16590	-16467.5	0	0	0	0	0	0
394	-16590	-16462.5	0	0	0	0	0	0
395	-16597.5	-16460	0	0	0	0	0	0
396	-16607.5	-16470	0	0	0	0	0	0
397	-16612.5	-16472.5	0	0	0	0	0	0
398	-16617.5	-16467.5	0	0	0	0	0	0
399	-16617.5	-16475	0	0	0	0	0	0
400	-16617.5	-16465	0	0	0	0	0	0
401	-16617.5	-16465	0	0	0	0	0	0
402	-16605	-16460	0	0	0	0	0	0
403	-16607.5	-16460	0	0	0	0	0	0
404	-16610	-16475	0	0	0	0	0	0
405	-16605	-16470	0	0	0	0	0	0
406	-16607.5	-16472.5	0	0	0	0	0	0
407	-16615	-16482.5	0	0	0	0	0	0
408	-16632.5	-16487.5	0	0	0	0	0	0
409	-16640	-16497.5	0	0	0	0	0	0
410	-16637.5	-16495	0	0	0	0	0	0
411	-16647.5	-16495	0	0	0	0	0	0
412	-16647.5	-16495	0	0	0	0	0	0
413	-16640	-16477.5	0	0	0	0	0	0
414	-16647.5	-16475	0	0	0	0	0	0
415	-16645	-16472.5	0	0	0	0	0	0
416	-16652.5	-16462.5	0	0	0	0	0	0
417	-16657.5	-16455	0	0	0	0	0	0
418	-16645	-16430	0	0	0	0	0	0
419	-16657.5	-16412.5	0	0	0	0	0	0
420	-16667.5	-16407.5	0	0	0	0	0	0
421	-16670	-16390	0	0	0	0	0	0
422	-16675	-16375	0	0	0	0	0	0
423	-16660	-16357.5	0	0	0	0	0	0
424	-16645	-16332.5	0	0	0	0	0	0
425	-16622.5	-16307.5	0	0	0	0	0	0
426	-16602.5	-16280	0	0	0	0	0	0
427	-16587.5	-16267.5	0	0	0	0	0	0
428	-16577.5	-16260	0	0	0	0	0	0
429	-16580	-16257.5	0	0	0	0	0	0
430	-16570	-16262.5	0	0	0	0	0	0
431	-16567.5	-16262.5	0	0	0	0	0	0
432	-16577.5	-16280	0	0	0	0	0	0
433	-16587.5	-16300	0	0	0	0	0	0
434	-16610	-16325	0	0	0	0	0	0
435	-16632.5	-16357.5	0	0	0	0	0	0
436	-16647.5	-16382.5	0	0	0	0	0	0
437	-16675	-16417.5	0	0	0	0	0	0
438	-16680	-16440	0	0	0	0	0	0
439	-16677.5	-16460	0	0	0	0	0	0
440	-16677.5	-16472.5	0	0	0	0	0	0
441	-16675	-16487.5	0	0	0	0	0	0
442	-16672.5	-16500	0	0	0	0	0	0
443	-16662.5	-16505	0	0	0	0	0	0
444	-16647.5	-16512.5	0	0	0	0	0	0
445	-16640	-16515	0	0	0	0	0	0
446	-16632.5	-16517.5	0	0	0	0	0	0
447	-16620	-16512.5	0	0	0	0	0	0
448	-16622.5	-16515	0	0	0	0	0	0
449	-16630	-16527.5	0	0	0	0	0	0
450	-16622.5	-16522.5	0	0	0	0	0	0
451	-16622.5	-16517.5	0	0	0	0	0	0
452	-16617.5	-16512.5	0	0	0	0	0	0
453	-16612.5	-16500	0	0	0	0	0	0
454	-16607.5	-16487.5	0	0	0	0	0	0
455	-16590	-16477.5	0	0	0	0	0	0
456	-16572.5	-16467.5	0	0	0	0	0	0
457	-16555	-16457.5	0	0	0	0	0	0
458	-16520	-16425	0	0	0	0	0	0
459	-16492.5	-16400	0	0	0	0	0	0
460	-16467.5	-16375	0	0	0	0	0	0
461	-16430	-16345	0	0	0	0	0	0
462	-16400	-16320	0	0	0	0	0	0
463	-16375	-16300	0	0	0	0	0	0
464	-16357.5	-16282.5	0	0	0	0	0	0
465	-16335	-16247.5	0	0	0	0	0	0
466	-16300	-16197.5	0	0	0	0	0	0
467	-16260	-16155	0	0	0	0	0	0
468	-16215	-16107.5	0	0	0	0	0	0
469	-16172.5	-16057.5	0	0	0	0	0	0
470	-16135	-16017.5	0	0	0	0	0	0
471	-16090	-15970	0	0	0	0	0	0
472	-16045	-15920	0	0	0	0	0	0
473	-16002.5	-15872.5	0	0	0	0	0	0
474	-15932.5	-15802.5	0	0	0	0	0	0
475	-15875	-15750	0	0	0	0	0	0
476	-15807.5	-15695	0	0	0	0	0	0
477	-15745	-15640	0	0	0	0	0	0
478	-15697.5	-15602.5	0	0	0	0	0	0
479	-15627.5	-15545	0	0	0	0	0	0
480	-15572.5	-15495	0	0	0	0	0	0
481	-15522.5	-15442.5	0	0	0	0	0	0
482	-15452.5	-15367.5	0	0	0	0	0	0
483	-15392.5	-15305	0	0	0	0	0	0
484	-15322.5	-15222.5	0	0	0	0	0	0
485	-15242.5	-15137.5	0	0	0	0	0	0
486	-15170	-15052.5	0	0	0	0	0	0
487	-15077.5	-14932.5	0	0	0	0	0	0
488	-14972.5	-14795	0	0	0	0	0	0
489	-14855	-14635	0	0	0	0	0	0
490	-14740	-14470	0	0	0	0	0	0
491	-14640	-14312.5	0	0	0	0	0	0
492	-14535	-14157.5	0	0	0	0	0	0
493	-14442.5	-14032.5	0	0	0	0	0	0
494	-14360	-13930	0	0	0	0	0	0
495	-14292.5	-13845	0	0	0	0	0	0
496	-14245	-13780	0	0	0	0	0	0
497	-14200	-13740	0	0	0	0	0	0
498	-14167.5	-13740	0	0	0	0	0	0
499	-14140	-13765	0	0	0	0	0	0
500	-14100	-13797.5	0	0	0	0	0	0
501	-14045	-13835	0	0	0	0	0	0
502	-13987.5	-13862.5	0	0	0	0	0	0
503	-13935	-13867.5	0	0	0	0	0	0
504	-13875	-13852.5	0	0	0	0	0	0
505	-13800	-13822.5	0	0	0	0	0	0
506	-13715	-13770	0	0	0	0	0	0
507	-13622.5	-13697.5	0	0	0	0	0	0
508	-13532.5	-13615	0	0	0	0	0	0
509	-13432.5	-13507.5	0	0	0	0	0	0
510	-13330	-13397.5	0	0	0	0	0	0
511	-13252.5	-13285	0	0	0	0	0	0
512	-13170	-13172.5	0	0	0	0	0	0
513	-13080	-13070	0	0	0	0	0	0
514	-12995	-12962.5	0	0	0	0	0	0
515	-12910	-12862.5	0	0	0	0	0	0
516	-12825	-12765	0	0	0	0	0	0
517	-12752.5	-12672.5	0	0	0	0	0	0
518	-12662.5	-12572.5	0	0	0	0	0	0
519	-12595	-12487.5	0	0	0	0	0	0
520	-12522.5	-12402.5	0	0	0	0	0	0
521	-12420	-12302.5	0	0	0	0	0	0
522	-12337.5	-12210	0	0	0	0	0	0
523	-12242.5	-12112.5	0	0	0	0	0	0
524	-12145	-12020	0	0	0	0	0	0
525	-12052.5	-11927.5	0	0	0	0	0	0
526	-11947.5	-11825	0	0	0	0	0	0
527	-11852.5	-11732.5	0	0	0	0	0	0
528	-11747.5	-11637.5	0	0	0	0	0	0
529	-11655	-11545	0	0	0	0	0	0
530	-11567.5	-11455	0	0	0	0	0	0
531	-11472.5	-11365	0	0	0	0	0	0
532	-11400	-11287.5	0	0	0	0	0	0
533	-11310	-11192.5	0	0	0	0	0	0
534	-11222.5	-11095	0	0	0	0	0	0
535	-11135	-11005	0	0	0	0	0	0
536	-11042.5	-10907.5	0	0	0	0	0	0
537	-10965	-10827.5	0	0	0	0	0	0
538	-10880	-10745	0	0	0	0	0	0
539	-10785	-10652.5	0	0	0	0	0	0
540	-10702.5	-10577.5	0	0	0	0	0	0
541	-10615	-10495	0	0	0	0	0	0
542	-10525	-10415	0	0	0	0	0	0
543	-10437.5	-10340	0	0	0	0	0	0
544	-10357.5	-10267.5	0	0	0	0	0	0
545	-10285	-10205	0	0	0	0	0	0
546	-10207.5	-10130	0	0	0	0	0	0
547	-10130	-10050	0	0	0	0	0	0
548	-10055	-9970	0	0	0	0	0	0
549	-9975	-9882.5	0	0	0	0	0	0
550	-9895	-9797.5	0	0	0	0	0	0
551	-9807.5	-9707.5	0	0	0	0	0	0
552	-9722.5	-9612.5	0	0	0	0	0	0
553	-9642.5	-9525	0	0	0	0	0	0
554	-9547.5	-9425	0	0	0	0	0	0
555	-9447.5	-9320	0	0	0	0	0	0
556	-9350	-9230	0	0	0	0	0	0
557	-9255	-9140	0	0	0	0	0	0
558	-9157.5	-9050	0	0	0	0	0	0
559	-9077.5	-8972.5	0	0	0	0	0	0
560	-8995	-8885	0	0	0	0	0	0
561	-8897.5	-8787.5	0	0	0	0	0	0
562	-8817.5	-8700	0	0	0	0	0	0
563	-8717.5	-8602.5	0	0	0	0	0	0
564	-8622.5	-8507.5	0	0	0	0	0	0
565	-8540	-8417.5	0	0	0	0	0	0
566	-8447.5	-8320	0	0	0	0	0	0
567	-8362.5	-8230	0	0	0	0	0	0
568	-8267.5	-8130	0	0	0	0	0	0
569	-8170	-8025	0	0	0	0	0	0
570	-8072.5	-7927.5	0	0	0	0	0	0
571	-7977.5	-7837.5	0	0	0	0	0	0
572	-7880	-7742.5	0	0	0	0	0	0
573	-7780	-7647.5	0	0	0	0	0	0
574	-7690	-7565	0	0	0	0	0	0
575	-7600	-7475	0	0	0	0	0	0
576	-7502.5	-7380	0	0	0	0	0	0
577	-7425	-7302.5	0	0	0	0	0	0
578	-7345	-7220	0	0	0	0	0	0
579	-7247.5	-7127.5	0	0	0	0	0	0
580	-7157.5	-7040	0	0	0	0	0	0
581	-7057.5	-6940	0	0	0	0	0	0
582	-6965	-6847.5	0	0	0	0	0	0
583	-6880	-6762.5	0	0	0	0	0	0
584	-6787.5	-6665	0	0	0	0	0	0
585	-6700	-6575	0	0	0	0	0	0
586	-6610	-6487.5	0	0	0	0	0	0
587	-6505	-6382.5	0	0	0	0	0	0
588	-6417.5	-6295	0	0	0	0	0	0
589	-6330	-6212.5	0	0	0	0	0	0
590	-6250	-6127.5	0	0	0	0	0	0
591	-6185	-6060	0	0	0	0	0	0
592	-6105	-5977.5	0	0	0	0	0	0
593	-6020	-5887.5	0	0	0	0	0	0
594	-5940	-5800	0	0	0	0	0	0
595	-5847.5	-5702.5	0	0	0	0	0	0
596	-5755	-5602.5	0	0	0	0	0	0
597	-5667.5	-5510	0	0	0	0	0	0
598	-5555	-5397.5	0	0	0	0	0	0
599	-5460	-5300	0	0	0	0	0	0
600	-5365	-5205	0	0	0	0	0	0
601	-5255	-5095	0	0	0	0	0	0
602	-5170	-5010	0	0	0	0	0	0
603	-5080	-4920	0	0	0	0	0	0
604	-4982.5	-4825	0	0	0	0	0	0
605	-4895	-4742.5	0	0	0	0	0	0
606	-4807.5	-4657.5	0	0	0	0	0	0
607	-4720	-4565	0	0	0	0	0	0
608	-4625	-4475	0	0	0	0	0	0
609	-4550	-4390	0	0	0	0	0	0
610	-4460	-4295	0	0	0	0	0	0
611	-4365	-4202.5	0	0	0	0	0	0
612	-4287.5	-4112.5	0	0	0	0	0	0
613	-4190	-4017.5	0	0	0	0	0	0
614	-4100	-3925	0	0	0	0	0	0
615	-4022.5	-3840	0	0	0	0	0	0
616	-3935	-3755	0	0	0	0	0	0
617	-3855	-3675	0	0	0	0	0	0
618	-3782.5	-3597.5	0	0	0	0	0	0
619	-3685	-3507.5	0	0	0	0	0	0
620	-3590	-3420	0	0	0	0	0	0
621	-3505	-3332.5	0	0	0	0	0	0
622	-3402.5	-3235	0	0	0	0	0	0
623	-3302.5	-3137.5	0	0	0	0	0	0
624	-3220	-3050	0	0	0	0	0	0
625	-3132.5	-2955	0	0	0	0	0	0
626	-3047.5	-2857.5	0	0	0	0	0	0
627	-2970	-2772.5	0	0	0	0	0	0
628	-2872.5	-2675	0	0	0	0	0	0
629	-2787.5	-2582.5	0	0	0	0	0	0
630	-2697.5	-2490	0	0	0	0	0	0
631	-2597.5	-2390	0	0	0	0	0	0
632	-2515	-2302.5	0	0	0	0	0	0
633	-2430	-2217.5	0	0	0	0	0	0
634	-2340	-2130	0	0	0	0	0	0
635	-2257.5	-2052.5	0	0	0	0	0	0
636	-2172.5	-1970	0	0	0	0	0	0
637	-2075	-1877.5	0	0	0	0	0	0
638	-1987.5	-1792.5	0	0	0	0	0	0
639	-1915	-1707.5	0	0	0	0	0	0
640	-1842.5	-1635	0	0	0	0	0	0
641	-1777.5	-1560	0	0	0	0	0	0
642	-1692.5	-1475	0	0	0	0	0	0
643	-1612.5	-1397.5	0	0	0	0	0	0
644	-1542.5	-1320	0	0	0	0	0	0
645	-1435	-1222.5	0	0	0	0	0	0
646	-1342.5	-1135	0	0	0	0	0	0
647	-1270	-1055	0	0	0	0	0	0
648	-1197.5	-980	0	0	0	0	0	0
649	-1122.5	-905	0	0	0	0	0	0
650	-1025	-817.5	0	0	0	0	0	0
651	-932.5	-737.5	0	0	0	0	0	0
652	-867.5	-675	0	0	0	0	0	0
653	-790	-602.5	0	0	0	0	0	0
654	-705	-527.5	0	0	0	0	0	0
655	-642.5	-467.5	0	0	0	0	0	0
656	-582.5	-412.5	0	0	0	0	0	0
657	-517.5	-355	0	0	0	0	0	0
658	-460	-290	0	0	0	0	0	0
659	-410	-230	0	0	0	0	0	0
660	-382.5	-187.5	0	0	0	0	0	0
661	-350	-137.5	0	0	0	0	0	0
662	-302.5	-80	0	0	0	0	0	0
663	-262.5	-37.5	0	0	0	0	0	0
664	-227.5	2.5	0	0	0	0	0	0
665	-205	30	0	0	0	0	0	0
666	-180	57.5	0	0	0	0	0	0
667	-152.5	82.5	0	0	0	0	0	0
668	-140	90	0	0	0	0	0	0
669	-120	102.5	0	0	0	0	0	0
670	-102.5	112.5	0	0	0	0	0	0
671	-90	122.5	0	0	0	0	0	0
672	-90	125	0	0	0	0	0	0
673	-95	127.5	0	0	0	0	0	0
674	-80	135	0	0	0	0	0	0
675	-72.5	145	0	0	0	0	0	0
676	-62.5	155	0	0	0	0	0	0
677	-47.5	167.5	0	0	0	0	0	0
678	-27.5	180	0	0	0	0	0	0
679	-5	197.5	0	0	0	0	0	0
680	0	202.5	0	0	0	0	0	0
681	12.5	215	0	0	0	0	0	0
682	35	235	0	0	0	0	0	0
683	45	240	0	0	0	0	0	0
684	50	240	0	0	0	0	0	0
685	55	242.5	0	0	0	0	0	0
686	60	240	0	0	0	0	0	0
687	55	235	0	0	0	0	0	0
688	45	227.5	0	0	0	0	0	0
689	37.5	220	0	0	0	0	0	0
690	20	202.5	0	0	0	0	0	0
691	17.5	187.5	0	0	0	0	0	0
692	15	175	0	0	0	0	0	0
693	5	162.5	0	0	0	0	0	0
694	5	160	0	0	0	0	0	0
695	2.5	167.5	0	0	0	0	0	0
696	15	187.5	0	0	0	0	0	0
697	17.5	202.5	0	0	0	0	0	0
698	17.5	215	0	0	0	0	0	0
699	25	225	0	0	0	0	0	0
700	45	250	0	0	0	0	0	0
701	45	257.5	0	0	0	0	0	0
702	32.5	257.5	0	0	0	0	0	0
703	47.5	275	0	0	0	0	0	0
704	52.5	282.5	0	0	0	0	0	0
705	40	272.5	0	0	0	0	0	0
706	37.5	262.5	0	0	0	0	0	0
707	47.5	262.5	0	0	0	0	0	0
708	47.5	257.5	0	0	0	0	0	0
709	55	252.5	0	0	0	0	0	0
710	50	245	0	0	0	0	0	0
711	42.5	240	0	0	0	0	0	0
712	45	245	0	0	0	0	0	0
713	35	245	0	0	0	0	0	0
714	32.5	250	0	0	0	0	0	0
715	25	257.5	0	0	0	0	0	0
716	22.5	265	0	0	0	0	0	0
717	15	270	0	0	0	0	0	0
718	7.5	282.5	0	0	0	0	0	0
719	7.5	297.5	0	0	0	0	0	0
720	2.5	305	0	0	0	0	0	0
721	5	322.5	0	0	0	0	0	0
722	15	342.5	0	0	0	0	0	0
723	15	355	0	0	0	0	0	0
724	15	367.5	0	0	0	0	0	0
725	17.5	377.5	0	0	0	0	0	0
726	17.5	390	0	0	0	0	0	0
727	12.5	397.5	0	0	0	0	0	0
728	5	395	0	0	0	0	0	0
729	-2.5	390	0	0	0	0	0	0
730	2.5	400	0	0	0	0	0	0
731	5	400	0	0	0	0	0	0
732	-5	385	0	0	0	0	0	0
733	-2.5	372.5	0	0	0	0	0	0
734	-2.5	355	0	0	0	0	0	0
735	0	337.5	0	0	0	0	0	0
736	-5	310	0	0	0	0	0	0
737	-10	270	0	0	0	0	0	0
738	-10	245	0	0	0	0	0	0
739	-15	215	0	0	0	0	0	0
740	-27.5	182.5	0	0	0	0	0	0
741	-35	160	0	0	0	0	0	0
742	-32.5	140	0	0	0	0	0	0
743	-55	110	0	0	0	0	0	0
744	-77.5	82.5	0	0	0	0	0	0
745	-90	65	0	0	0	0	0	0
746	-97.5	55	0	0	0	0	0	0
747	-112.5	37.5	0	0	0	0	0	0
748	-122.5	20	0	0	0	0	0	0
749	-115	10	0	0	0	0	0	0
750	-127.5	-7.5	0	0	0	0	0	0
751	-142.5	-32.5	0	0	0	0	0	0
752	-145	-45	0	0	0	0	0	0
753	-155	-47.5	0	0	0	0	0	0
754	-160	-57.5	0	0	0	0	0	0
755	-165	-62.5	0	0	0	0	0	0
756	-170	-67.5	0	0	0	0	0	0
757	-177.5	-70	0	0	0	0	0	0
758	-180	-62.5	0	0	0	0	0	0
759	-195	-77.5	0	0	0	0	0	0
760	-202.5	-82.5	0	0	0	0	0	0
761	-205	-77.5	0	0	0	0	0	0
762	-230	-97.5	0	0	0	0	0	0
763	-220	-102.5	0	0	0	0	0	0
764	-217.5	-100	0	0	0	0	0	0
765	-222.5	-105	0	0	0	0	0	0
766	-220	-105	0	0	0	0	0	0
767	-225	-107.5	0	0	0	0	0	0
768	-215	-102.5	0	0	0	0	0	0
769	-212.5	-100	0	0	0	0	0	0
770	-210	-97.5	0	0	0	0	0	0
771	-197.5	-85	0	0	0	0	0	0
772	-200	-80	0	0	0	0	0	0
773	-195	-72.5	0	0	0	0	0	0
774	-200	-75	0	0	0	0	0	0
775	-220	-92.5	0	0	0	0	0	0
776	-230	-107.5	0	0	0	0	0	0
777	-242.5	-135	0	0	0	0	0	0
778	-262.5	-162.5	0	0	0	0	0	0
779	-277.5	-177.5	0	0	0	0	0	0
780	-292.5	-195	0	0	0	0	0	0
781	-310	-210	0	0	0	0	0	0
782	-317.5	-215	0	0	0	0	0	0
783	-327.5	-222.5	0	0	0	0	0	0
784	-327.5	-222.5	0	0	0	0	0	0
785	-310	-205	0	0	0	0	0	0
786	-300	-187.5	0	0	0	0	0	0
787	-280	-145	0	0	0	0	0	0
788	-257.5	-85	0	0	0	0	0	0
789	-245	-17.5	0	0	0	0	0	0
790	-227.5	60	0	0	0	0	0	0
791	-197.5	145	0	0	0	0	0	0
792	-175	227.5	0	0	0	0	0	0
793	-165	280	0	0	0	0	0	0
794	-170	302.5	0	0	0	0	0	0
795	-197.5	300	0	0	0	0	0	0
796	-202.5	295	0	0	0	0	0	0
797	-235	255	0	0	0	0	0	0
798	-272.5	185	0	0	0	0	0	0
799	-275	117.5	0	0	0	0	0	0
800	-295	17.5	0	0	0	0	0	0
801	-320	-92.5	0	0	0	0	0	0
802	-327.5	-197.5	0	0	0	0	0	0
803	-337.5	-282.5	0	0	0	0	0	0
804	-340	-335	0	0	0	0	0	0
805	-330	-380	0	0	0	0	0	0
806	-332.5	-410	0	0	0	0	0	0
807	-332.5	-430	0	0	0	0	0	0
808	-327.5	-432.5	0	0	0	0	0	0
809	-340	-430	0	0	0	0	0	0
810	-345	-420	0	0	0	0	0	0
811	-347.5	-397.5	0	0	0	0	0	0
812	-367.5	-385	0	0	0	0	0	0
813	-387.5	-380	0	0	0	0	0	0
814	-395	-365	0	0	0	0	0	0
815	-400	-342.5	0	0	0	0	0	0
816	-407.5	-332.5	0	0	0	0	0	0
817	-392.5	-305	0	0	0	0	0	0
818	-382.5	-282.5	0	0	0	0	0	0
819	-392.5	-282.5	0	0	0	0	0	0
820	-397.5	-270	0	0	0	0	0	0
821	-415	-275	0	0	0	0	0	0
822	-415	-275	0	0	0	0	0	0
823	-417.5	-270	0	0	0	0	0	0
824	-427.5	-275	0	0	0	0	0	0
825	-427.5	-285	0	0	0	0	0	0
826	-437.5	-292.5	0	0	0	0	0	0
827	-437.5	-292.5	0	0	0	0	0	0
828	-435	-295	0	0	0	0	0	0
829	-430	-290	0	0	0	0	0	0
830	-417.5	-290	0	0	0	0	0	0
831	-420	-297.5	0	0	0	0	0	0
832	-415	-297.5	0	0	0	0	0	0
833	-415	-300	0	0	0	0	0	0
834	-412.5	-292.5	0	0	0	0	0	0
835	-402.5	-287.5	0	0	0	0	0	0
836	-410	-280	0	0	0	0	0	0
837	-415	-280	0	0	0	0	0	0
838	-432.5	-297.5	0	0	0	0	0	0
839	-447.5	-305	0	0	0	0	0	0
840	-455	-320	0	0	0	0	0	0
841	-465	-330	0	0	0	0	0	0
842	-460	-317.5	0	0	0	0	0	0
843	-462.5	-317.5	0	0	0	0	0	0
844	-460	-310	0	0	0	0	0	0
845	-450	-297.5	0	0	0	0	0	0
846	-460	-307.5	0	0	0	0	0	0
847	-457.5	-310	0	0	0	0	0	0
848	-447.5	-302.5	0	0	0	0	0	0
849	-440	-300	0	0	0	0	0	0
850	-417.5	-287.5	0	0	0	0	0	0
851	-412.5	-277.5	0	0	0	0	0	0
852	-410	-280	0	0	0	0	0	0
853	-402.5	-280	0	0	0	0	0	0
854	-417.5	-290	0	0	0	0	0	0
855	-422.5	-302.5	0	0	0	0	0	0
856	-422.5	-307.5	0	0	0	0	0	0
857	-425	-310	0	0	0	0	0	0
858	-425	-310	0	0	0	0	0	0
859	-437.5	-312.5	0	0	0	0	0	0
860	-437.5	-307.5	0	0	0	0	0	0
861	-435	-307.5	0	0	0	0	0	0
862	-425	-302.5	0	0	0	0	0	0
863	-410	-292.5	0	0	0	0	0	0
864	-402.5	-292.5	0	0	0	0	0	0
865	-397.5	-282.5	0	0	0	0	0	0
866	-390	-272.5	0	0	0	0	0	0
867	-382.5	-260	0	0	0	0	0	0
868	-377.5	-252.5	0	0	0	0	0	0
869	-375	-250	0	0	0	0	0	0
870	-370	-245	0	0	0	0	0	0
871	-370	-242.5	0	0	0	0	0	0
872	-372.5	-237.5	0	0	0	0	0	0
873	-380	-230	0	0	0	0	0	0
874	-387.5	-230	0	0	0	0	0	0
875	-387.5	-227.5	0	0	0	0	0	0
876	-390	-230	0	0	0	0	0	0
877	-395	-235	0	0	0	0	0	0
878	-392.5	-235	0	0	0	0	0	0
879	-395	-237.5	0	0	0	0	0	0
880	-405	-242.5	0	0	0	0	0	0
881	-410	-250	0	0	0	0	0	0
882	-427.5	-260	0	0	0	0	0	0
883	-430	-257.5	0	0	0	0	0	0
884	-427.5	-252.5	0	0	0	0	0	0
885	-437.5	-255	0	0	0	0	0	0
886	-430	-255	0	0	0	0	0	0
887	-425	-250	0	0	0	0	0	0
888	-415	-245	0	0	0	0	0	0
889	-390	-237.5	0	0	0	0	0	0
890	-372.5	-227.5	0	0	0	0	0	0
891	-355	-217.5	0	0	0	0	0	0
892	-337.5	-205	0	0	0	0	0	0
893	-337.5	-207.5	0	0	0	0	0	0
894	-327.5	-197.5	0	0	0	0	0	0
895	-322.5	-192.5	0	0	0	0	0	0
896	-330	-192.5	0	0	0	0	0	0
897	-320	-182.5	0	0	0	0	0	0
898	-330	-182.5	0	0	0	0	0	0
899	-337.5	-180	0	0	0	0	0	0
900	-345	-175	0	0	0	0	0	0
901	-340	-170	0	0	0	0	0	0
902	-325	-167.5	0	0	0	0	0	0
903	-320	-162.5	0	0	0	0	0	0
904	-307.5	-165	0	0	0	0	0	0
905	-307.5	-175	0	0	0	0	0	0
906	-300	-165	0	0	0	0	0	0
907	-295	-170	0	0	0	0	0	0
908	-307.5	-172.5	0	0	0	0	0	0
909	-302.5	-165	0	0	0	0	0	0
910	-302.5	-162.5	0	0	0	0	0	0
911	-315	-162.5	0	0	0	0	0	0
912	-322.5	-165	0	0	0	0	0	0
913	-335	-172.5	0	0	0	0	0	0
914	-345	-175	0	0	0	0	0	0
915	-345	-167.5	0	0	0	0	0	0
916	-345	-170	0	0	0	0	0	0
917	-345	-167.5	0	0	0	0	0	0
918	-330	-160	0	0	0	0	0	0
919	-320	-160	0	0	0	0	0	0
920	-317.5	-157.5	0	0	0	0	0	0
921	-302.5	-152.5	0	0	0	0	0	0
922	-292.5	-145	0	0	0	0	0	0
923	-285	-135	0	0	0	0	0	0
924	-267.5	-120	0	0	0	0	0	0
925	-262.5	-112.5	0	0	0	0	0	0
926	-262.5	-105	0	0	0	0	0	0
927	-262.5	-100	0	0	0	0	0	0
928	-282.5	-105	0	0	0	0	0	0
929	-290	-100	0	0	0	0	0	0
930	-295	-107.5	0	0	0	0	0	0
931	-310	-117.5	0	0	0	0	0	0
932	-307.5	-127.5	0	0	0	0	0	0
933	-317.5	-142.5	0	0	0	0	0	0
934	-337.5	-152.5	0	0	0	0	0	0
935	-345	-160	0	0	0	0	0	0
936	-352.5	-170	0	0	0	0	0	0
937	-362.5	-175	0	0	0	0	0	0
938	-357.5	-175	0	0	0	0	0	0
939	-362.5	-177.5	0	0	0	0	0	0
940	-365	-177.5	0	0	0	0	0	0
941	-360	-172.5	0	0	0	0	0	0
942	-370	-165	0	0	0	0	0	0
943	-367.5	-160	0	0	0	0	0	0
944	-362.5	-160	0	0	0	0	0	0
945	-357.5	-157.5	0	0	0	0	0	0
946	-342.5	-152.5	0	0	0	0	0	0
947	-340	-152.5	0	0	0	0	0	0
948	-335	-157.5	0	0	0	0	0	0
949	-327.5	-165	0	0	0	0	0	0
950	-332.5	-172.5	0	0	0	0	0	0
951	-322.5	-172.5	0	0	0	0	0	0
952	-322.5	-180	0	0	0	0	0	0
953	-317.5	-172.5	0	0	0	0	0	0
954	-312.5	-170	0	0	0	0	0	0
955	-330	-182.5	0	0	0	0	0	0
956	-342.5	-190	0	0	0	0	0	0
957	-365	-207.5	0	0	0	0	0	0
958	-380	-210	0	0	0	0	0	0
959	-392.5	-207.5	0	0	0	0	0	0
960	-402.5	-207.5	0	0	0	0	0	0
961	-405	-207.5	0	0	0	0	0	0
962	-417.5	-217.5	0	0	0	0	0	0
963	-410	-220	0	0	0	0	0	0
964	-397.5	-217.5	0	0	0	0	0	0
965	-397.5	-215	0	0	0	0	0	0
966	-390	-200	0	0	0	0	0	0
967	-372.5	-185	0	0	0	0	0	0
968	-362.5	-177.5	0	0	0	0	0	0
969	-355	-167.5	0	0	0	0	0	0
970	-347.5	-155	0	0	0	0	0	0
971	-355	-152.5	0	0	0	0	0	0
972	-352.5	-157.5	0	0	0	0	0	0
973	-362.5	-165	0	0	0	0	0	0
974	-382.5	-172.5	0	0	0	0	0	0
975	-370	-175	0	0	0	0	0	0
976	-370	-182.5	0	0	0	0	0	0
977	-362.5	-185	0	0	0	0	0	0
978	-347.5	-182.5	0	0	0	0	0	0
979	-342.5	-187.5	0	0	0	0	0	0
980	-340	-192.5	0	0	0	0	0	0
981	-345	-195	0	0	0	0	0	0
982	-347.5	-187.5	0	0	0	0	0	0
983	-357.5	-190	0	0	0	0	0	0
984	-357.5	-190	0	0	0	0	0	0
985	-355	-190	0	0	0	0	0	0
986	-352.5	-187.5	0	0	0	0	0	0
987	-357.5	-190	0	0	0	0	0	0
988	-367.5	-192.5	0	0	0	0	0	0
989	-360	-182.5	0	0	0	0	0	0
990	-357.5	-177.5	0	0	0	0	0	0
991	-352.5	-177.5	0	0	0	0	0	0
992	-342.5	-170	0	0	0	0	0	0
993	-327.5	-160	0	0	0	0	0	0
994	-315	-147.5	0	0	0	0	0	0
995	-312.5	-142.5	0	0	0	0	0	0
996	-315	-145	0	0	0	0	0	0
997	-327.5	-155	0	0	0	0	0	0
998	-342.5	-175	0	0	0	0	0	0
999	-370	-200	0	0	0	0	0	0
1000	-390	-215	0	0	0	0	0	0
1001	-385	-215	0	0	0	0	0	0
1002	-387.5	-215	0	0	0	0	0	0
1003	-380	-212.5	0	0	0	0	0	0
1004	-372.5	-205	0	0	0	0	0	0
1005	-372.5	-202.5	0	0	0	0	0	0
1006	-355	-195	0	0	0	0	0	0
1007	-342.5	-180	0	0	0	0	0	0
1008	-322.5	-157.5	0	0	0	0	0	0
1009	-305	-142.5	0	0	0	0	0	0
1010	-305	-132.5	0	0	0	0	0	0
1011	-317.5	-130	0	0	0	0	0	0
1012	-322.5	-125	0	0	0	0	0	0
1013	-322.5	-112.5	0	0	0	0	0	0
1014	-335	-117.5	0	0	0	0	0	0
1015	-337.5	-115	0	0	0	0	0	0
1016	-347.5	-105	0	0	0	0	0	0
1017	-345	-90	0	0	0	0	0	0
1018	-330	-77.5	0	0	0	0	0	0
1019	-327.5	-57.5	0	0	0	0	0	0
1020	-305	-32.5	0	0	0	0	0	0
1021	-280	-10	0	0	0	0	0	0
1022	-282.5	-5	0	0	0	0	0	0
1023	-300	-5	0	0	0	0	0	0
1024	-312.5	7.5	0	0	0	0	0	0
1025	-317.5	15	0	0	0	0	0	0
1026	-322.5	25	0	0	0	0	0	0
1027	-320	40	0	0	0	0	0	0
1028	-320	52.5	0	0	0	0	0	0
1029	-327.5	62.5	0	0	0	0	0	0
1030	-327.5	65	0	0	0	0	0	0
1031	-330	70	0	0	0	0	0	0
1032	-335	67.5	0	0	0	0	0	0
1033	-312.5	72.5	0	0	0	0	0	0
1034	-305	65	0	0	0	0	0	0
1035	-305	52.5	0	0	0	0	0	0
1036	-292.5	42.5	0	0	0	0	0	0
1037	-310	5	0	0	0	0	0	0
1038	-310	-15	0	0	0	0	0	0
1039	-307.5	-37.5	0	0	0	0	0	0
1040	-307.5	-62.5	0	0	0	0	0	0
1041	-292.5	-72.5	0	0	0	0	0	0
1042	-285	-87.5	0	0	0	0	0	0
1043	-287.5	-105	0	0	0	0	0	0
1044	-290	-115	0	0	0	0	0	0
1045	-297.5	-130	0	0	0	0	0	0
1046	-310	-147.5	0	0	0	0	0	0
1047	-327.5	-160	0	0	0	0	0	0
1048	-340	-177.5	0	0	0	0	0	0
1049	-362.5	-210	0	0	0	0	0	0
1050	-382.5	-225	0	0	0	0	0	0
1051	-397.5	-245	0	0	0	0	0	0
1052	-417.5	-272.5	0	0	0	0	0	0
1053	-417.5	-275	0	0	0	0	0	0
1054	-412.5	-282.5	0	0	0	0	0	0
1055	-410	-290	0	0	0	0	0	0
1056	-392.5	-285	0	0	0	0	0	0
1057	-385	-295	0	0	0	0	0	0
1058	-380	-297.5	0	0	0	0	0	0
1059	-372.5	-292.5	0	0	0	0	0	0
1060	-372.5	-290	0	0	0	0	0	0
1061	-377.5	-285	0	0	0	0	0	0
1062	-385	-280	0	0	0	0	0	0
1063	-382.5	-272.5	0	0	0	0	0	0
1064	-382.5	-267.5	0	0	0	0	0	0
1065	-385	-267.5	0	0	0	0	0	0
1066	-387.5	-265	0	0	0	0	0	0
1067	-385	-267.5	0	0	0	0	0	0
1068	-375	-255	0	0	0	0	0	0
1069	-365	-250	0	0	0	0	0	0
1070	-357.5	-255	0	0	0	0	0	0
1071	-345	-250	0	0	0	0	0	0
1072	-342.5	-260	0	0	0	0	0	0
1073	-347.5	-272.5	0	0	0	0	0	0
1074	-347.5	-280	0	0	0	0	0	0
1075	-362.5	-292.5	0	0	0	0	0	0
1076	-375	-292.5	0	0	0	0	0	0
1077	-387.5	-300	0	0	0	0	0	0
1078	-382.5	-297.5	0	0	0	0	0	0
1079	-372.5	-297.5	0	0	0	0	0	0
1080	-377.5	-307.5	0	0	0	0	0	0
1081	-370	-312.5	0	0	0	0	0	0
1082	-365	-310	0	0	0	0	0	0
1083	-370	-307.5	0	0	0	0	0	0
1084	-382.5	-312.5	0	0	0	0	0	0
1085	-380	-300	0	0	0	0	0	0
1086	-350	-265	0	0	0	0	0	0
1087	-337.5	-240	0	0	0	0	0	0
1088	-332.5	-197.5	0	0	0	0	0	0
1089	-302.5	-117.5	0	0	0	0	0	0
1090	-285	-32.5	0	0	0	0	0	0
1091	-252.5	72.5	0	0	0	0	0	0
1092	-210	185	0	0	0	0	0	0
1093	-175	285	0	0	0	0	0	0
1094	-135	370	0	0	0	0	0	0
1095	-107.5	407.5	0	0	0	0	0	0
1096	-105	417.5	0	0	0	0	0	0
1097	-122.5	395	0	0	0	0	0	0
1098	-132.5	345	0	0	0	0	0	0
1099	-162.5	262.5	0	0	0	0	0	0
1100	-207.5	142.5	0	0	0	0	0	0
1101	-242.5	7.5	0	0	0	0	0	0
1102	-285	-140	0	0	0	0	0	0
1103	-327.5	-282.5	0	0	0	0	0	0
1104	-357.5	-392.5	0	0	0	0	0	0
1105	-377.5	-467.5	0	0	0	0	0	0
1106	-395	-525	0	0	0	0	0	0
1107	-392.5	-555	0	0	0	0	0	0
1108	-390	-562.5	0	0	0	0	0	0
1109	-390	-552.5	0	0	0	0	0	0
1110	-375	-520	0	0	0	0	0	0
1111	-365	-482.5	0	0	0	0	0	0
1112	-360	-435	0	0	0	0	0	0
1113	-347.5	-390	0	0	0	0	0	0
1114	-320	-340	0	0	0	0	0	0
1115	-302.5	-307.5	0	0	0	0	0	0
1116	-285	-277.5	0	0	0	0	0	0
1117	-262.5	-235	0	0	0	0	0	0
1118	-272.5	-227.5	0	0	0	0	0	0
1119	-270	-225	0	0	0	0	0	0
1120	-272.5	-220	0	0	0	0	0	0
1121	-280	-227.5	0	0	0	0	0	0
1122	-267.5	-217.5	0	0	0	0	0	0
1123	-265	-215	0	0	0	0	0	0
1124	-282.5	-225	0	0	0	0	0	0
1125	-295	-227.5	0	0	0	0	0	0
1126	-297.5	-232.5	0	0	0	0	0	0
1127	-305	-242.5	0	0	0	0	0	0
1128	-310	-242.5	0	0	0	0	0	0
1129	-302.5	-230	0	0	0	0	0	0
1130	-295	-222.5	0	0	0	0	0	0
1131	-300	-220	0	0	0	0	0	0
1132	-307.5	-227.5	0	0	0	0	0	0
1133	-315	-240	0	0	0	0	0	0
1134	-312.5	-247.5	0	0	0	0	0	0
1135	-312.5	-255	0	0	0	0	0	0
1136	-327.5	-260	0	0	0	0	0	0
1137	-317.5	-255	0	0	0	0	0	0
1138	-307.5	-255	0	0	0	0	0	0
1139	-300	-262.5	0	0	0	0	0	0
1140	-282.5	-270	0	0	0	0	0	0
1141	-285	-282.5	0	0	0	0	0	0
1142	-280	-292.5	0	0	0	0	0	0
1143	-280	-297.5	0	0	0	0	0	0
1144	-292.5	-300	0	0	0	0	0	0
1145	-282.5	-297.5	0	0	0	0	0	0
1146	-280	-302.5	0	0	0	0	0	0
1147	-287.5	-310	0	0	0	0	0	0
1148	-277.5	-305	0	0	0	0	0	0
1149	-282.5	-310	0	0	0	0	0	0
1150	-285	-312.5	0	0	0	0	0	0
1151	-277.5	-310	0	0	0	0	0	0
1152	-285	-320	0	0	0	0	0	0
1153	-265	-322.5	0	0	0	0	0	0
1154	-250	-330	0	0	0	0	0	0
1155	-252.5	-342.5	0	0	0	0	0	0
1156	-245	-347.5	0	0	0	0	0	0
1157	-247.5	-360	0	0	0	0	0	0
1158	-257.5	-375	0	0	0	0	0	0
1159	-265	-380	0	0	0	0	0	0
1160	-267.5	-385	0	0	0	0	0	0
1161	-270	-385	0	0	0	0	0	0
1162	-267.5	-380	0	0	0	0	0	0
1163	-265	-382.5	0	0	0	0	0	0
1164	-265	-377.5	0	0	0	0	0	0
1165	-255	-370	0	0	0	0	0	0
1166	-252.5	-367.5	0	0	0	0	0	0
1167	-245	-360	0	0	0	0	0	0
1168	-225	-345	0	0	0	0	0	0
1169	-220	-345	0	0	0	0	0	0
1170	-220	-347.5	0	0	0	0	0	0
1171	-217.5	-355	0	0	0	0	0	0
1172	-220	-365	0	0	0	0	0	0
1173	-222.5	-370	0	0	0	0	0	0
1174	-225	-380	0	0	0	0	0	0
1175	-237.5	-395	0	0	0	0	0	0
1176	-237.5	-402.5	0	0	0	0	0	0
1177	-235	-412.5	0	0	0	0	0	0
1178	-235	-425	0	0	0	0	0	0
1179	-217.5	-422.5	0	0	0	0	0	0
1180	-202.5	-415	0	0	0	0	0	0
1181	-190	-405	0	0	0	0	0	0
1182	-180	-392.5	0	0	0	0	0	0
1183	-177.5	-390	0	0	0	0	0	0
1184	-175	-390	0	0	0	0	0	0
1185	-170	-385	0	0	0	0	0	0
1186	-170	-380	0	0	0	0	0	0
1187	-180	-377.5	0	0	0	0	0	0
1188	-195	-385	0	0	0	0	0	0
1189	-210	-395	0	0	0	0	0	0
1190	-215	-405	0	0	0	0	0	0
1191	-215	-410	0	0	0	0	0	0
1192	-212.5	-405	0	0	0	0	0	0
1193	-197.5	-392.5	0	0	0	0	0	0
1194	-187.5	-382.5	0	0	0	0	0	0
1195	-175	-367.5	0	0	0	0	0	0
1196	-175	-362.5	0	0	0	0	0	0
1197	-175	-360	0	0	0	0	0	0
1198	-167.5	-352.5	0	0	0	0	0	0
1199	-167.5	-350	0	0	0	0	0	0
1200	-162.5	-345	0	0	0	0	0	0
1201	-162.5	-335	0	0	0	0	0	0
1202	-162.5	-335	0	0	0	0	0	0
1203	-150	-337.5	0	0	0	0	0	0
1204	-152.5	-340	0	0	0	0	0	0
1205	-155	-347.5	0	0	0	0	0	0
1206	-140	-345	0	0	0	0	0	0
1207	-137.5	-345	0	0	0	0	0	0
1208	-142.5	-345	0	0	0	0	0	0
1209	-150	-352.5	0	0	0	0	0	0
1210	-142.5	-360	0	0	0	0	0	0
1211	-142.5	-365	0	0	0	0	0	0
1212	-157.5	-385	0	0	0	0	0	0
1213	-160	-390	0	0	0	0	0	0
1214	-165	-395	0	0	0	0	0	0
1215	-162.5	-400	0	0	0	0	0	0
1216	-152.5	-395	0	0	0	0	0	0
1217	-152.5	-397.5	0	0	0	0	0	0
1218	-135	-392.5	0	0	0	0	0	0
1219	-125	-392.5	0	0	0	0	0	0
1220	-127.5	-395	0	0	0	0	0	0
1221	-125	-397.5	0	0	0	0	0	0
1222	-122.5	-397.5	0	0	0	0	0	0
1223	-140	-397.5	0	0	0	0	0	0
1224	-142.5	-392.5	0	0	0	0	0	0
1225	-132.5	-380	0	0	0	0	0	0
1226	-150	-375	0	0	0	0	0	0
1227	-145	-375	0	0	0	0	0	0
1228	-142.5	-370	0	0	0	0	0	0
1229	-155	-365	0	0	0	0	0	0
1230	-160	-370	0	0	0	0	0	0
1231	-160	-367.5	0	0	0	0	0	0
1232	-150	-365	0	0	0	0	0	0
1233	-142.5	-362.5	0	0	0	0	0	0
1234	-130	-357.5	0	0	0	0	0	0
1235	-120	-360	0	0	0	0	0	0
1236	-135	-367.5	0	0	0	0	0	0
1237	-127.5	-362.5	0	0	0	0	0	0
1238	-132.5	-362.5	0	0	0	0	0	0
1239	-137.5	-362.5	0	0	0	0	0	0
1240	-120	-350	0	0	0	0	0	0
1241	-142.5	-357.5	0	0	0	0	0	0
1242	-152.5	-360	0	0	0	0	0	0
1243	-155	-357.5	0	0	0	0	0	0
1244	-195	-380	0	0	0	0	0	0
1245	-205	-390	0	0	0	0	0	0
1246	-210	-395	0	0	0	0	0	0
1247	-225	-412.5	0	0	0	0	0	0
1248	-222.5	-417.5	0	0	0	0	0	0
1249	-225	-422.5	0	0	0	0	0	0
1250	-230	-432.5	0	0	0	0	0	0
1251	-225	-437.5	0	0	0	0	0	0
1252	-217.5	-440	0	0	0	0	0	0
1253	-215	-452.5	0	0	0	0	0	0
1254	-210	-460	0	0	0	0	0	0
1255	-200	-460	0	0	0	0	0	0
1256	-200	-467.5	0	0	0	0	0	0
1257	-192.5	-467.5	0	0	0	0	0	0
1258	-197.5	-470	0	0	0	0	0	0
1259	-215	-485	0	0	0	0	0	0
1260	-210	-477.5	0	0	0	0	0	0
1261	-202.5	-462.5	0	0	0	0	0	0
1262	-207.5	-460	0	0	0	0	0	0
1263	-190	-442.5	0	0	0	0	0	0
1264	-180	-437.5	0	0	0	0	0	0
1265	-195	-452.5	0	0	0	0	0	0
1266	-192.5	-450	0	0	0	0	0	0
1267	-200	-447.5	0	0	0	0	0	0
1268	-205	-440	0	0	0	0	0	0
1269	-177.5	-425	0	0	0	0	0	0
1270	-177.5	-422.5	0	0	0	0	0	0
1271	-187.5	-437.5	0	0	0	0	0	0
1272	-185	-440	0	0	0	0	0	0
1273	-195	-442.5	0	0	0	0	0	0
1274	-197.5	-442.5	0	0	0	0	0	0
1275	-182.5	-420	0	0	0	0	0	0
1276	-175	-415	0	0	0	0	0	0
1277	-175	-422.5	0	0	0	0	0	0
1278	-170	-415	0	0	0	0	0	0
1279	-177.5	-427.5	0	0	0	0	0	0
1280	-200	-435	0	0	0	0	0	0
1281	-187.5	-420	0	0	0	0	0	0
1282	-187.5	-412.5	0	0	0	0	0	0
1283	-190	-410	0	0	0	0	0	0
1284	-170	-402.5	0	0	0	0	0	0
1285	-180	-417.5	0	0	0	0	0	0
1286	-190	-437.5	0	0	0	0	0	0
1287	-187.5	-450	0	0	0	0	0	0
1288	-200	-460	0	0	0	0	0	0
1289	-195	-460	0	0	0	0	0	0
1290	-182.5	-445	0	0	0	0	0	0
1291	-180	-445	0	0	0	0	0	0
1292	-190	-452.5	0	0	0	0	0	0
1293	-200	-460	0	0	0	0	0	0
1294	-215	-470	0	0	0	0	0	0
1295	-220	-472.5	0	0	0	0	0	0
1296	-197.5	-457.5	0	0	0	0	0	0
1297	-175	-437.5	0	0	0	0	0	0
1298	-150	-425	0	0	0	0	0	0
1299	-132.5	-412.5	0	0	0	0	0	0
1300	-137.5	-412.5	0	0	0	0	0	0
1301	-147.5	-420	0	0	0	0	0	0
1302	-162.5	-425	0	0	0	0	0	0
1303	-170	-430	0	0	0	0	0	0
1304	-177.5	-432.5	0	0	0	0	0	0
1305	-180	-432.5	0	0	0	0	0	0
1306	-182.5	-425	0	0	0	0	0	0
1307	-197.5	-430	0	0	0	0	0	0
1308	-200	-432.5	0	0	0	0	0	0
1309	-195	-427.5	0	0	0	0	0	0
1310	-195	-435	0	0	0	0	0	0
1311	-182.5	-430	0	0	0	0	0	0
1312	-167.5	-417.5	0	0	0	0	0	0
1313	-157.5	-412.5	0	0	0	0	0	0
1314	-155	-400	0	0	0	0	0	0
1315	-147.5	-382.5	0	0	0	0	0	0
1316	-142.5	-370	0	0	0	0	0	0
1317	-145	-360	0	0	0	0	0	0
1318	-155	-357.5	0	0	0	0	0	0
1319	-167.5	-355	0	0	0	0	0	0
1320	-172.5	-345	0	0	0	0	0	0
1321	-187.5	-347.5	0	0	0	0	0	0
1322	-190	-340	0	0	0	0	0	0
1323	-180	-320	0	0	0	0	0	0
1324	-167.5	-307.5	0	0	0	0	0	0
1325	-160	-297.5	0	0	0	0	0	0
1326	-167.5	-295	0	0	0	0	0	0
1327	-162.5	-282.5	0	0	0	0	0	0
1328	-150	-255	0	0	0	0	0	0
1329	-147.5	-247.5	0	0	0	0	0	0
1330	-132.5	-232.5	0	0	0	0	0	0
1331	-117.5	-212.5	0	0	0	0	0	0
1332	-120	-215	0	0	0	0	0	0
1333	-122.5	-212.5	0	0	0	0	0	0
1334	-127.5	-205	0	0	0	0	0	0
1335	-125	-205	0	0	0	0	0	0
1336	-120	-197.5	0	0	0	0	0	0
1337	-117.5	-202.5	0	0	0	0	0	0
1338	-117.5	-215	0	0	0	0	0	0
1339	-117.5	-220	0	0	0	0	0	0
1340	-117.5	-225	0	0	0	0	0	0
1341	-120	-232.5	0	0	0	0	0	0
1342	-110	-232.5	0	0	0	0	0	0
1343	-110	-242.5	0	0	0	0	0	0
1344	-115	-260	0	0	0	0	0	0
1345	-120	-285	0	0	0	0	0	0
1346	-127.5	-310	0	0	0	0	0	0
1347	-135	-337.5	0	0	0	0	0	0
1348	-142.5	-365	0	0	0	0	0	0
1349	-155	-385	0	0	0	0	0	0
1350	-165	-407.5	0	0	0	0	0	0
1351	-162.5	-425	0	0	0	0	0	0
1352	-177.5	-447.5	0	0	0	0	0	0
1353	-187.5	-465	0	0	0	0	0	0
1354	-187.5	-480	0	0	0	0	0	0
1355	-210	-502.5	0	0	0	0	0	0
1356	-202.5	-510	0	0	0	0	0	0
1357	-190	-497.5	0	0	0	0	0	0
1358	-195	-495	0	0	0	0	0	0
1359	-177.5	-490	0	0	0	0	0	0
1360	-182.5	-490	0	0	0	0	0	0
1361	-192.5	-495	0	0	0	0	0	0
1362	-177.5	-485	0	0	0	0	0	0
1363	-180	-492.5	0	0	0	0	0	0
1364	-167.5	-485	0	0	0	0	0	0
1365	-155	-465	0	0	0	0	0	0
1366	-157.5	-457.5	0	0	0	0	0	0
1367	-152.5	-455	0	0	0	0	0	0
1368	-167.5	-467.5	0	0	0	0	0	0
1369	-170	-475	0	0	0	0	0	0
1370	-167.5	-480	0	0	0	0	0	0
1371	-167.5	-485	0	0	0	0	0	0
1372	-162.5	-480	0	0	0	0	0	0
1373	-162.5	-470	0	0	0	0	0	0
1374	-155	-457.5	0	0	0	0	0	0
1375	-152.5	-455	0	0	0	0	0	0
1376	-155	-457.5	0	0	0	0	0	0
1377	-152.5	-460	0	0	0	0	0	0
1378	-152.5	-452.5	0	0	0	0	0	0
1379	-147.5	-440	0	0	0	0	0	0
1380	-162.5	-447.5	0	0	0	0	0	0
1381	-157.5	-447.5	0	0	0	0	0	0
1382	-142.5	-450	0	0	0	0	0	0
1383	-145	-467.5	0	0	0	0	0	0
1384	-142.5	-477.5	0	0	0	0	0	0
1385	-142.5	-485	0	0	0	0	0	0
1386	-150	-487.5	0	0	0	0	0	0
1387	-160	-490	0	0	0	0	0	0
1388	-157.5	-490	0	0	0	0	0	0
1389	-135	-470	0	0	0	0	0	0
1390	-105	-432.5	0	0	0	0	0	0
1391	-80	-387.5	0	0	0	0	0	0
1392	-70	-335	0	0	0	0	0	0
1393	-52.5	-257.5	0	0	0	0	0	0
1394	-22.5	-157.5	0	0	0	0	0	0
1395	0	-67.5	0	0	0	0	0	0
1396	27.5	27.5	0	0	0	0	0	0
1397	67.5	125	0	0	0	0	0	0
1398	87.5	192.5	0	0	0	0	0	0
1399	90	232.5	0	0	0	0	0	0
1400	90	237.5	0	0	0	0	0	0
1401	67.5	215	0	0	0	0	0	0
1402	40	170	0	0	0	0	0	0
1403	12.5	80	0	0	0	0	0	0
1404	-17.5	-32.5	0	0	0	0	0	0
1405	-37.5	-150	0	0	0	0	0	0
1406	-65	-285	0	0	0	0	0	0
1407	-80	-397.5	0	0	0	0	0	0
1408	-95	-497.5	0	0	0	0	0	0
1409	-115	-575	0	0	0	0	0	0
1410	-115	-615	0	0	0	0	0	0
1411	-112.5	-635	0	0	0	0	0	0
1412	-95	-630	0	0	0	0	0	0
1413	-85	-610	0	0	0	0	0	0
1414	-90	-577.5	0	0	0	0	0	0
1415	-92.5	-545	0	0	0	0	0	0
1416	-105	-515	0	0	0	0	0	0
1417	-107.5	-482.5	0	0	0	0	0	0
1418	-107.5	-457.5	0	0	0	0	0	0
1419	-125	-442.5	0	0	0	0	0	0
1420	-127.5	-432.5	0	0	0	0	0	0
1421	-142.5	-432.5	0	0	0	0	0	0
1422	-152.5	-432.5	0	0	0	0	0	0
1423	-150	-430	0	0	0	0	0	0
1424	-152.5	-425	0	0	0	0	0	0
1425	-137.5	-407.5	0	0	0	0	0	0
1426	-130	-390	0	0	0	0	0	0
1427	-135	-382.5	0	0	0	0	0	0
1428	-127.5	-372.5	0	0	0	0	0	0
1429	-102.5	-355	0	0	0	0	0	0
1430	-92.5	-347.5	0	0	0	0	0	0
1431	-90	-340	0	0	0	0	0	0
1432	-87.5	-337.5	0	0	0	0	0	0
1433	-92.5	-332.5	0	0	0	0	0	0
1434	-105	-342.5	0	0	0	0	0	0
1435	-117.5	-357.5	0	0	0	0	0	0
1436	-135	-377.5	0	0	0	0	0	0
1437	-167.5	-410	0	0	0	0	0	0
1438	-192.5	-427.5	0	0	0	0	0	0
1439	-202.5	-432.5	0	0	0	0	0	0
1440	-197.5	-420	0	0	0	0	0	0
1441	-182.5	-402.5	0	0	0	0	0	0
1442	-167.5	-390	0	0	0	0	0	0
1443	-145	-367.5	0	0	0	0	0	0
1444	-122.5	-355	0	0	0	0	0	0
1445	-100	-345	0	0	0	0	0	0
1446	-87.5	-325	0	0	0	0	0	0
1447	-70	-305	0	0	0	0	0	0
1448	-47.5	-287.5	0	0	0	0	0	0
1449	-55	-287.5	0	0	0	0	0	0
1450	-65	-300	0	0	0	0	0	0
1451	-77.5	-315	0	0	0	0	0	0
1452	-87.5	-330	0	0	0	0	0	0
1453	-82.5	-337.5	0	0	0	0	0	0
1454	-100	-342.5	0	0	0	0	0	0
1455	-102.5	-342.5	0	0	0	0	0	0
1456	-90	-332.5	0	0	0	0	0	0
1457	-95	-330	0	0	0	0	0	0
1458	-77.5	-312.5	0	0	0	0	0	0
1459	-75	-302.5	0	0	0	0	0	0
1460	-77.5	-290	0	0	0	0	0	0
1461	-57.5	-275	0	0	0	0	0	0
1462	-67.5	-270	0	0	0	0	0	0
1463	-75	-275	0	0	0	0	0	0
1464	-72.5	-285	0	0	0	0	0	0
1465	-77.5	-287.5	0	0	0	0	0	0
1466	-75	-295	0	0	0	0	0	0
1467	-77.5	-302.5	0	0	0	0	0	0
1468	-87.5	-310	0	0	0	0	0	0
1469	-80	-320	0	0	0	0	0	0
1470	-75	-320	0	0	0	0	0	0
1471	-80	-320	0	0	0	0	0	0
1472	-77.5	-315	0	0	0	0	0	0
1473	-80	-307.5	0	0	0	0	0	0
1474	-75	-295	0	0	0	0	0	0
1475	-72.5	-287.5	0	0	0	0	0	0
1476	-65	-272.5	0	0	0	0	0	0
1477	-50	-260	0	0	0	0	0	0
1478	-47.5	-250	0	0	0	0	0	0
1479	-45	-232.5	0	0	0	0	0	0
1480	-42.5	-220	0	0	0	0	0	0
1481	-42.5	-220	0	0	0	0	0	0
1482	-37.5	-212.5	0	0	0	0	0	0
1483	-30	-200	0	0	0	0	0	0
1484	-25	-197.5	0	0	0	0	0	0
1485	-25	-192.5	0	0	0	0	0	0
1486	-27.5	-195	0	0	0	0	0	0
1487	-32.5	-200	0	0	0	0	0	0
1488	-27.5	-200	0	0	0	0	0	0
1489	-25	-210	0	0	0	0	0	0
1490	-25	-210	0	0	0	0	0	0
1491	-22.5	-207.5	0	0	0	0	0	0
1492	-17.5	-212.5	0	0	0	0	0	0
1493	-22.5	-210	0	0	0	0	0	0
1494	-25	-212.5	0	0	0	0	0	0
1495	-25	-215	0	0	0	0	0	0
1496	-32.5	-215	0	0	0	0	0	0
1497	-30	-220	0	0	0	0	0	0
1498	-32.5	-215	0	0	0	0	0	0
1499	-30	-205	0	0	0	0	0	0
1500	-25	-202.5	0	0	0	0	0	0
1501	-17.5	-190	0	0	0	0	0	0
1502	-15	-185	0	0	0	0	0	0
1503	-12.5	-187.5	0	0	0	0	0	0
1504	-5	-177.5	0	0	0	0	0	0
1505	0	-167.5	0	0	0	0	0	0
1506	17.5	-155	0	0	0	0	0	0
1507	15	-152.5	0	0	0	0	0	0
1508	17.5	-147.5	0	0	0	0	0	0
1509	15	-157.5	0	0	0	0	0	0
1510	-2.5	-175	0	0	0	0	0	0
1511	-2.5	-172.5	0	0	0	0	0	0
1512	-10	-182.5	0	0	0	0	0	0
1513	-5	-182.5	0	0	0	0	0	0
1514	0	-180	0	0	0	0	0	0
1515	-12.5	-192.5	0	0	0	0	0	0
1516	-2.5	-175	0	0	0	0	0	0
1517	0	-170	0	0	0	0	0	0
1518	0	-165	0	0	0	0	0	0
1519	7.5	-145	0	0	0	0	0	0
1520	10	-140	0	0	0	0	0	0
1521	20	-132.5	0	0	0	0	0	0
1522	15	-127.5	0	0	0	0	0	0
1523	10	-125	0	0	0	0	0	0
1524	17.5	-107.5	0	0	0	0	0	0
1525	17.5	-102.5	0	0	0	0	0	0
1526	20	-102.5	0	0	0	0	0	0
1527	20	-100	0	0	0	0	0	0
1528	20	-102.5	0	0	0	0	0	0
1529	20	-107.5	0	0	0	0	0	0
1530	20	-105	0	0	0	0	0	0
1531	15	-110	0	0	0	0	0	0
1532	7.5	-112.5	0	0	0	0	0	0
1533	15	-110	0	0	0	0	0	0
1534	12.5	-112.5	0	0	0	0	0	0
1535	10	-112.5	0	0	0	0	0	0
1536	20	-107.5	0	0	0	0	0	0
1537	17.5	-102.5	0	0	0	0	0	0
1538	15	-92.5	0	0	0	0	0	0
1539	17.5	-87.5	0	0	0	0	0	0
1540	12.5	-87.5	0	0	0	0	0	0
1541	27.5	-75	0	0	0	0	0	0
1542	32.5	-72.5	0	0	0	0	0	0
1543	22.5	-77.5	0	0	0	0	0	0
1544	22.5	-75	0	0	0	0	0	0
1545	0	-87.5	0	0	0	0	0	0
1546	-30	-110	0	0	0	0	0	0
1547	-40	-117.5	0	0	0	0	0	0
1548	-52.5	-117.5	0	0	0	0	0	0
1549	-47.5	-115	0	0	0	0	0	0
1550	-37.5	-102.5	0	0	0	0	0	0
1551	-45	-105	0	0	0	0	0	0
1552	-35	-105	0	0	0	0	0	0
1553	-30	-100	0	0	0	0	0	0
1554	-42.5	-112.5	0	0	0	0	0	0
1555	-25	-105	0	0	0	0	0	0
1556	-17.5	-95	0	0	0	0	0	0
1557	-17.5	-102.5	0	0	0	0	0	0
1558	-22.5	-110	0	0	0	0	0	0
1559	-35	-127.5	0	0	0	0	0	0
1560	-52.5	-145	0	0	0	0	0	0
1561	-67.5	-152.5	0	0	0	0	0	0
1562	-87.5	-165	0	0	0	0	0	0
1563	-92.5	-160	0	0	0	0	0	0
1564	-85	-155	0	0	0	0	0	0
1565	-85	-150	0	0	0	0	0	0
1566	-85	-145	0	0	0	0	0	0
1567	-80	-147.5	0	0	0	0	0	0
1568	-62.5	-132.5	0	0	0	0	0	0
1569	-52.5	-117.5	0	0	0	0	0	0
1570	-47.5	-107.5	0	0	0	0	0	0
1571	-37.5	-92.5	0	0	0	0	0	0
1572	-35	-82.5	0	0	0	0	0	0
1573	-32.5	-82.5	0	0	0	0	0	0
1574	-32.5	-82.5	0	0	0	0	0	0
1575	-30	-85	0	0	0	0	0	0
1576	-30	-87.5	0	0	0	0	0	0
1577	-27.5	-82.5	0	0	0	0	0	0
1578	-35	-92.5	0	0	0	0	0	0
1579	-45	-92.5	0	0	0	0	0	0
1580	-42.5	-95	0	0	0	0	0	0
1581	-52.5	-105	0	0	0	0	0	0
1582	-50	-97.5	0	0	0	0	0	0
1583	-42.5	-95	0	0	0	0	0	0
1584	-57.5	-95	0	0	0	0	0	0
1585	-52.5	-80	0	0	0	0	0	0
1586	-42.5	-72.5	0	0	0	0	0	0
1587	-45	-67.5	0	0	0	0	0	0
1588	-35	-60	0	0	0	0	0	0
1589	-37.5	-62.5	0	0	0	0	0	0
1590	-52.5	-70	0	0	0	0	0	0
1591	-52.5	-70	0	0	0	0	0	0
1592	-65	-80	0	0	0	0	0	0
1593	-77.5	-92.5	0	0	0	0	0	0
1594	-70	-87.5	0	0	0	0	0	0
1595	-72.5	-87.5	0	0	0	0	0	0
1596	-75	-87.5	0	0	0	0	0	0
1597	-57.5	-77.5	0	0	0	0	0	0
1598	-55	-75	0	0	0	0	0	0
1599	-55	-67.5	0	0	0	0	0	0
1600	-37.5	-57.5	0	0	0	0	0	0
1601	-35	-52.5	0	0	0	0	0	0
1602	-27.5	-40	0	0	0	0	0	0
1603	-20	-32.5	0	0	0	0	0	0
1604	-20	-27.5	0	0	0	0	0	0
1605	-22.5	-27.5	0	0	0	0	0	0
1606	-32.5	-32.5	0	0	0	0	0	0
1607	-40	-25	0	0	0	0	0	0
1608	-47.5	-25	0	0	0	0	0	0
1609	-50	-22.5	0	0	0	0	0	0
1610	-47.5	-10	0	0	0	0	0	0
1611	-47.5	-7.5	0	0	0	0	0	0
1612	-45	-5	0	0	0	0	0	0
1613	-45	-5	0	0	0	0	0	0
1614	-35	-15	0	0	0	0	0	0
1615	-20	-12.5	0	0	0	0	0	0
1616	-27.5	-15	0	0	0	0	0	0
1617	-37.5	-27.5	0	0	0	0	0	0
1618	-40	-25	0	0	0	0	0	0
1619	-45	-27.5	0	0	0	0	0	0
1620	-45	-37.5	0	0	0	0	0	0
1621	-42.5	-37.5	0	0	0	0	0	0
1622	-32.5	-30	0	0	0	0	0	0
1623	-22.5	-17.5	0	0	0	0	0	0
1624	-37.5	-5	0	0	0	0	0	0
1625	-45	2.5	0	0	0	0	0	0
1626	-30	20	0	0	0	0	0	0
1627	-32.5	35	0	0	0	0	0	0
1628	-27.5	45	0	0	0	0	0	0
1629	-22.5	55	0	0	0	0	0	0
1630	-27.5	65	0	0	0	0	0	0
1631	-27.5	75	0	0	0	0	0	0
1632	-45	67.5	0	0	0	0	0	0
1633	-60	57.5	0	0	0	0	0	0
1634	-77.5	52.5	0	0	0	0	0	0
1635	-95	60	0	0	0	0	0	0
1636	-87.5	80	0	0	0	0	0	0
1637	-80	107.5	0	0	0	0	0	0
1638	-67.5	142.5	0	0	0	0	0	0
1639	-52.5	182.5	0	0	0	0	0	0
1640	-30	220	0	0	0	0	0	0
1641	-12.5	250	0	0	0	0	0	0
1642	5	287.5	0	0	0	0	0	0
1643	20	317.5	0	0	0	0	0	0
1644	32.5	332.5	0	0	0	0	0	0
1645	42.5	337.5	0	0	0	0	0	0
1646	35	337.5	0	0	0	0	0	0
1647	20	312.5	0	0	0	0	0	0
1648	12.5	282.5	0	0	0	0	0	0
1649	12.5	262.5	0	0	0	0	0	0
1650	0	232.5	0	0	0	0	0	0
1651	-5	202.5	0	0	0	0	0	0
1652	-2.5	185	0	0	0	0	0	0
1653	-17.5	160	0	0	0	0	0	0
1654	-15	152.5	0	0	0	0	0	0
1655	-12.5	140	0	0	0	0	0	0
1656	-20	115	0	0	0	0	0	0
1657	0	120	0	0	0	0	0	0
1658	-10	107.5	0	0	0	0	0	0
1659	-32.5	85	0	0	0	0	0	0
1660	-40	77.5	0	0	0	0	0	0
1661	-65	57.5	0	0	0	0	0	0
1662	-70	47.5	0	0	0	0	0	0
1663	-70	45	0	0	0	0	0	0
1664	-62.5	47.5	0	0	0	0	0	0
1665	-52.5	47.5	0	0	0	0	0	0
1666	-55	45	0	0	0	0	0	0
1667	-55	42.5	0	0	0	0	0	0
1668	-55	40	0	0	0	0	0	0
1669	-52.5	42.5	0	0	0	0	0	0
1670	-52.5	37.5	0	0	0	0	0	0
1671	-55	40	0	0	0	0	0	0
1672	-47.5	40	0	0	0	0	0	0
1673	-45	37.5	0	0	0	0	0	0
1674	-52.5	30	0	0	0	0	0	0
1675	-57.5	25	0	0	0	0	0	0
1676	-65	17.5	0	0	0	0	0	0
1677	-82.5	5	0	0	0	0	0	0
1678	-82.5	5	0	0	0	0	0	0
1679	-77.5	5	0	0	0	0	0	0
1680	-70	7.5	0	0	0	0	0	0
1681	-62.5	17.5	0	0	0	0	0	0
1682	-72.5	15	0	0	0	0	0	0
1683	-70	25	0	0	0	0	0	0
1684	-77.5	25	0	0	0	0	0	0
1685	-85	22.5	0	0	0	0	0	0
1686	-80	27.5	0	0	0	0	0	0
1687	-82.5	22.5	0	0	0	0	0	0
1688	-82.5	12.5	0	0	0	0	0	0
1689	-107.5	-7.5	0	0	0	0	0	0
1690	-130	-30	0	0	0	0	0	0
1691	-135	-45	0	0	0	0	0	0
1692	-157.5	-70	0	0	0	0	0	0
1693	-157.5	-77.5	0	0	0	0	0	0
1694	-147.5	-75	0	0	0	0	0	0
1695	-150	-75	0	0	0	0	0	0
1696	-135	-57.5	0	0	0	0	0	0
1697	-117.5	-35	0	0	0	0	0	0
1698	-97.5	-2.5	0	0	0	0	0	0
1699	-65	42.5	0	0	0	0	0	0
1700	-32.5	95	0	0	0	0	0	0
1701	0	165	0	0	0	0	0	0
1702	32.5	247.5	0	0	0	0	0	0
1703	65	335	0	0	0	0	0	0
1704	82.5	417.5	0	0	0	0	0	0
1705	122.5	507.5	0	0	0	0	0	0
1706	137.5	570	0	0	0	0	0	0
1707	130	605	0	0	0	0	0	0
1708	135	630	0	0	0	0	0	0
1709	112.5	620	0	0	0	0	0	0
1710	95	595	0	0	0	0	0	0
1711	92.5	550	0	0	0	0	0	0
1712	67.5	462.5	0	0	0	0	0	0
1713	45	357.5	0	0	0	0	0	0
1714	5	227.5	0	0	0	0	0	0
1715	-35	97.5	0	0	0	0	0	0
1716	-62.5	-5	0	0	0	0	0	0
1717	-80	-87.5	0	0	0	0	0	0
1718	-75	-132.5	0	0	0	0	0	0
1719	-72.5	-162.5	0	0	0	0	0	0
1720	-65	-177.5	0	0	0	0	0	0
1721	-62.5	-182.5	0	0	0	0	0	0
1722	-75	-175	0	0	0	0	0	0
1723	-77.5	-152.5	0	0	0	0	0	0
1724	-65	-115	0	0	0	0	0	0
1725	-55	-70	0	0	0	0	0	0
1726	-45	-30	0	0	0	0	0	0
1727	-40	0	0	0	0	0	0	0
1728	-45	15	0	0	0	0	0	0
1729	-37.5	35	0	0	0	0	0	0
1730	-40	50	0	0	0	0	0	0
1731	-52.5	55	0	0	0	0	0	0
1732	-47.5	70	0	0	0	0	0	0
1733	-37.5	82.5	0	0	0	0	0	0
1734	-35	87.5	0	0	0	0	0	0
1735	-30	95	0	0	0	0	0	0
1736	-22.5	97.5	0	0	0	0	0	0
1737	-17.5	100	0	0	0	0	0	0
1738	-20	100	0	0	0	0	0	0
1739	-27.5	95	0	0	0	0	0	0
1740	-32.5	90	0	0	0	0	0	0
1741	-42.5	87.5	0	0	0	0	0	0
1742	-45	90	0	0	0	0	0	0
1743	-42.5	102.5	0	0	0	0	0	0
1744	-32.5	117.5	0	0	0	0	0	0
1745	-10	137.5	0	0	0	0	0	0
1746	0	160	0	0	0	0	0	0
1747	0	177.5	0	0	0	0	0	0
1748	5	195	0	0	0	0	0	0
1749	0	202.5	0	0	0	0	0	0
1750	0	217.5	0	0	0	0	0	0
1751	17.5	237.5	0	0	0	0	0	0
1752	27.5	245	0	0	0	0	0	0
1753	37.5	255	0	0	0	0	0	0
1754	25	242.5	0	0	0	0	0	0
1755	2.5	222.5	0	0	0	0	0	0
1756	-2.5	210	0	0	0	0	0	0
1757	-12.5	202.5	0	0	0	0	0	0
1758	-15	207.5	0	0	0	0	0	0
1759	-10	217.5	0	0	0	0	0	0
1760	-2.5	227.5	0	0	0	0	0	0
1761	-15	227.5	0	0	0	0	0	0
1762	-25	237.5	0	0	0	0	0	0
1763	-25	252.5	0	0	0	0	0	0
1764	-27.5	270	0	0	0	0	0	0
1765	-25	290	0	0	0	0	0	0
1766	-30	297.5	0	0	0	0	0	0
1767	-30	297.5	0	0	0	0	0	0
1768	-35	295	0	0	0	0	0	0
1769	-42.5	292.5	0	0	0	0	0	0
1770	-35	305	0	0	0	0	0	0
1771	-25	320	0	0	0	0	0	0
1772	-7.5	340	0	0	0	0	0	0
1773	0	355	0	0	0	0	0	0
1774	0	360	0	0	0	0	0	0
1775	5	372.5	0	0	0	0	0	0
1776	5	382.5	0	0	0	0	0	0
1777	7.5	395	0	0	0	0	0	0
1778	17.5	415	0	0	0	0	0	0
1779	17.5	420	0	0	0	0	0	0
1780	12.5	427.5	0	0	0	0	0	0
1781	5	427.5	0	0	0	0	0	0
1782	5	417.5	0	0	0	0	0	0
1783	5	412.5	0	0	0	0	0	0
1784	0	410	0	0	0	0	0	0
1785	12.5	422.5	0	0	0	0	0	0
1786	20	427.5	0	0	0	0	0	0
1787	25	432.5	0	0	0	0	0	0
1788	30	430	0	0	0	0	0	0
1789	25	422.5	0	0	0	0	0	0
1790	25	422.5	0	0	0	0	0	0
1791	25	420	0	0	0	0	0	0
1792	30	425	0	0	0	0	0	0
1793	27.5	435	0	0	0	0	0	0
1794	40	447.5	0	0	0	0	0	0
1795	42.5	450	0	0	0	0	0	0
1796	35	457.5	0	0	0	0	0	0
1797	52.5	470	0	0	0	0	0	0
1798	55	477.5	0	0	0	0	0	0
1799	72.5	497.5	0	0	0	0	0	0
1800	92.5	512.5	0	0	0	0	0	0
1801	85	520	0	0	0	0	0	0
1802	97.5	530	0	0	0	0	0	0
1803	97.5	527.5	0	0	0	0	0	0
1804	80	517.5	0	0	0	0	0	0
1805	75	510	0	0	0	0	0	0
1806	62.5	500	0	0	0	0	0	0
1807	55	490	0	0	0	0	0	0
1808	50	490	0	0	0	0	0	0
1809	37.5	482.5	0	0	0	0	0	0
1810	40	480	0	0	0	0	0	0
1811	50	492.5	0	0	0	0	0	0
1812	65	502.5	0	0	0	0	0	0
1813	70	510	0	0	0	0	0	0
1814	87.5	522.5	0	0	0	0	0	0
1815	110	535	0	0	0	0	0	0
1816	110	535	0	0	0	0	0	0
1817	105	522.5	0	0	0	0	0	0
1818	105	517.5	0	0	0	0	0	0
1819	102.5	512.5	0	0	0	0	0	0
1820	107.5	507.5	0	0	0	0	0	0
1821	100	500	0	0	0	0	0	0
1822	92.5	495	0	0	0	0	0	0
1823	95	497.5	0	0	0	0	0	0
1824	77.5	482.5	0	0	0	0	0	0
1825	65	472.5	0	0	0	0	0	0
1826	75	480	0	0	0	0	0	0
1827	77.5	482.5	0	0	0	0	0	0
1828	87.5	485	0	0	0	0	0	0
1829	107.5	510	0	0	0	0	0	0
1830	115	522.5	0	0	0	0	0	0
1831	120	532.5	0	0	0	0	0	0
1832	135	550	0	0	0	0	0	0
1833	132.5	550	0	0	0	0	0	0
1834	140	565	0	0	0	0	0	0
1835	152.5	575	0	0	0	0	0	0
1836	142.5	575	0	0	0	0	0	0
1837	162.5	597.5	0	0	0	0	0	0
1838	172.5	607.5	0	0	0	0	0	0
1839	167.5	612.5	0	0	0	0	0	0
1840	175	617.5	0	0	0	0	0	0
1841	157.5	600	0	0	0	0	0	0
1842	145	587.5	0	0	0	0	0	0
1843	135	575	0	0	0	0	0	0
1844	132.5	570	0	0	0	0	0	0
1845	147.5	582.5	0	0	0	0	0	0
1846	145	582.5	0	0	0	0	0	0
1847	145	585	0	0	0	0	0	0
1848	135	582.5	0	0	0	0	0	0
1849	120	572.5	0	0	0	0	0	0
1850	125	572.5	0	0	0	0	0	0
1851	127.5	575	0	0	0	0	0	0
1852	135	582.5	0	0	0	0	0	0
1853	145	582.5	0	0	0	0	0	0
1854	137.5	577.5	0	0	0	0	0	0
1855	115	557.5	0	0	0	0	0	0
1856	107.5	545	0	0	0	0	0	0
1857	102.5	542.5	0	0	0	0	0	0
1858	102.5	530	0	0	0	0	0	0
1859	110	527.5	0	0	0	0	0	0
1860	107.5	520	0	0	0	0	0	0
1861	97.5	505	0	0	0	0	0	0
1862	97.5	500	0	0	0	0	0	0
1863	102.5	500	0	0	0	0	0	0
1864	112.5	500	0	0	0	0	0	0
1865	125	505	0	0	0	0	0	0
1866	132.5	507.5	0	0	0	0	0	0
1867	132.5	510	0	0	0	0	0	0
1868	135	515	0	0	0	0	0	0
1869	140	530	0	0	0	0	0	0
1870	132.5	532.5	0	0	0	0	0	0
1871	137.5	537.5	0	0	0	0	0	0
1872	132.5	542.5	0	0	0	0	0	0
1873	112.5	532.5	0	0	0	0	0	0
1874	107.5	527.5	0	0	0	0	0	0
1875	100	525	0	0	0	0	0	0
1876	92.5	522.5	0	0	0	0	0	0
1877	92.5	525	0	0	0	0	0	0
1878	95	522.5	0	0	0	0	0	0
1879	90	512.5	0	0	0	0	0	0
1880	92.5	510	0	0	0	0	0	0
1881	85	497.5	0	0	0	0	0	0
1882	75	485	0	0	0	0	0	0
1883	87.5	492.5	0	0	0	0	0	0
1884	92.5	495	0	0	0	0	0	0
1885	110	507.5	0	0	0	0	0	0
1886	130	522.5	0	0	0	0	0	0
1887	135	532.5	0	0	0	0	0	0
1888	150	545	0	0	0	0	0	0
1889	157.5	547.5	0	0	0	0	0	0
1890	155	552.5	0	0	0	0	0	0
1891	172.5	570	0	0	0	0	0	0
1892	177.5	577.5	0	0	0	0	0	0
1893	177.5	577.5	0	0	0	0	0	0
1894	180	580	0	0	0	0	0	0
1895	170	577.5	0	0	0	0	0	0
1896	160	565	0	0	0	0	0	0
1897	147.5	547.5	0	0	0	0	0	0
1898	150	550	0	0	0	0	0	0
1899	155	550	0	0	0	0	0	0
1900	150	547.5	0	0	0	0	0	0
1901	167.5	562.5	0	0	0	0	0	0
1902	180	575	0	0	0	0	0	0
1903	182.5	580	0	0	0	0	0	0
1904	195	595	0	0	0	0	0	0
1905	190	590	0	0	0	0	0	0
1906	195	597.5	0	0	0	0	0	0
1907	207.5	610	0	0	0	0	0	0
1908	187.5	592.5	0	0	0	0	0	0
1909	192.5	597.5	0	0	0	0	0	0
1910	207.5	607.5	0	0	0	0	0	0
1911	187.5	587.5	0	0	0	0	0	0
1912	182.5	580	0	0	0	0	0	0
1913	187.5	572.5	0	0	0	0	0	0
1914	182.5	557.5	0	0	0	0	0	0
1915	190	562.5	0	0	0	0	0	0
1916	190	562.5	0	0	0	0	0	0
1917	187.5	565	0	0	0	0	0	0
1918	197.5	582.5	0	0	0	0	0	0
1919	195	582.5	0	0	0	0	0	0
1920	182.5	575	0	0	0	0	0	0
1921	185	572.5	0	0	0	0	0	0
1922	182.5	567.5	0	0	0	0	0	0
1923	172.5	557.5	0	0	0	0	0	0
1924	180	560	0	0	0	0	0	0
1925	167.5	552.5	0	0	0	0	0	0
1926	165	545	0	0	0	0	0	0
1927	165	540	0	0	0	0	0	0
1928	140	515	0	0	0	0	0	0
1929	137.5	515	0	0	0	0	0	0
1930	147.5	530	0	0	0	0	0	0
1931	160	550	0	0	0	0	0	0
1932	182.5	580	0	0	0	0	0	0
1933	185	602.5	0	0	0	0	0	0
1934	180	612.5	0	0	0	0	0	0
1935	175	620	0	0	0	0	0	0
1936	155	617.5	0	0	0	0	0	0
1937	140	622.5	0	0	0	0	0	0
1938	142.5	640	0	0	0	0	0	0
1939	137.5	647.5	0	0	0	0	0	0
1940	130	655	0	0	0	0	0	0
1941	125	665	0	0	0	0	0	0
1942	115	665	0	0	0	0	0	0
1943	122.5	680	0	0	0	0	0	0
1944	120	690	0	0	0	0	0	0
1945	130	715	0	0	0	0	0	0
1946	150	740	0	0	0	0	0	0
1947	160	745	0	0	0	0	0	0
1948	175	755	0	0	0	0	0	0
1949	180	760	0	0	0	0	0	0
1950	187.5	760	0	0	0	0	0	0
1951	195	765	0	0	0	0	0	0
1952	190	762.5	0	0	0	0	0	0
1953	180	750	0	0	0	0	0	0
1954	182.5	740	0	0	0	0	0	0
1955	182.5	720	0	0	0	0	0	0
1956	185	697.5	0	0	0	0	0	0
1957	190	682.5	0	0	0	0	0	0
1958	177.5	650	0	0	0	0	0	0
1959	162.5	612.5	0	0	0	0	0	0
1960	150	575	0	0	0	0	0	0
1961	127.5	537.5	0	0	0	0	0	0
1962	122.5	505	0	0	0	0	0	0
1963	125	470	0	0	0	0	0	0
1964	110	430	0	0	0	0	0	0
1965	95	405	0	0	0	0	0	0
1966	60	375	0	0	0	0	0	0
1967	30	347.5	0	0	0	0	0	0
1968	32.5	345	0	0	0	0	0	0
1969	15	332.5	0	0	0	0	0	0
1970	5	325	0	0	0	0	0	0
1971	-5	307.5	0	0	0	0	0	0
1972	-22.5	290	0	0	0	0	0	0
1973	-30	287.5	0	0	0	0	0	0
1974	-57.5	275	0	0	0	0	0	0
1975	-67.5	267.5	0	0	0	0	0	0
1976	-65	262.5	0	0	0	0	0	0
1977	-77.5	247.5	0	0	0	0	0	0
1978	-87.5	227.5	0	0	0	0	0	0
1979	-82.5	220	0	0	0	0	0	0
1980	-82.5	215	0	0	0	0	0	0
1981	-87.5	210	0	0	0	0	0	0
1982	-85	217.5	0	0	0	0	0	0
1983	-105	212.5	0	0	0	0	0	0
1984	-100	207.5	0	0	0	0	0	0
1985	-92.5	212.5	0	0	0	0	0	0
1986	-97.5	207.5	0	0	0	0	0	0
1987	-75	220	0	0	0	0	0	0
1988	-80	225	0	0	0	0	0	0
1989	-85	230	0	0	0	0	0	0
1990	-70	237.5	0	0	0	0	0	0
1991	-70	242.5	0	0	0	0	0	0
1992	-65	245	0	0	0	0	0	0
1993	-57.5	240	0	0	0	0	0	0
1994	-60	235	0	0	0	0	0	0
1995	-70	212.5	0	0	0	0	0	0
1996	-82.5	195	0	0	0	0	0	0
1997	-100	172.5	0	0	0	0	0	0
1998	-107.5	150	0	0	0	0	0	0
1999	-117.5	140	0	0	0	0	0	0
2000	-132.5	122.5	0	0	0	0	0	0
2001	-137.5	117.5	0	0	0	0	0	0
2002	-142.5	117.5	0	0	0	0	0	0
2003	-142.5	127.5	0	0	0	0	0	0
2004	-132.5	152.5	0	0	0	0	0	0
2005	-107.5	190	0	0	0	0	0	0
2006	-92.5	240	0	0	0	0	0	0
2007	-77.5	300	0	0	0	0	0	0
2008	-65	375	0	0	0	0	0	0
2009	-55	450	0	0	0	0	0	0
2010	-30	535	0	0	0	0	0	0
2011	-25	602.5	0	0	0	0	0	0
2012	-15	645	0	0	0	0	0	0
2013	-15	675	0	0	0	0	0	0
2014	-52.5	670	0	0	0	0	0	0
2015	-92.5	642.5	0	0	0	0	0	0
2016	-122.5	600	0	0	0	0	0	0
2017	-157.5	520	0	0	0	0	0	0
2018	-192.5	422.5	0	0	0	0	0	0
2019	-222.5	307.5	0	0	0	0	0	0
2020	-245	192.5	0	0	0	0	0	0
2021	-267.5	92.5	0	0	0	0	0	0
2022	-277.5	2.5	0	0	0	0	0	0
2023	-277.5	-57.5	0	0	0	0	0	0
2024	-280	-107.5	0	0	0	0	0	0
2025	-280	-147.5	0	0	0	0	0	0
2026	-272.5	-155	0	0	0	0	0	0
2027	-267.5	-157.5	0	0	0	0	0	0
2028	-240	-130	0	0	0	0	0	0
2029	-227.5	-100	0	0	0	0	0	0
2030	-250	-92.5	0	0	0	0	0	0
2031	-235	-55	0	0	0	0	0	0
2032	-252.5	-35	0	0	0	0	0	0
2033	-272.5	-27.5	0	0	0	0	0	0
2034	-252.5	5	0	0	0	0	0	0
2035	-252.5	17.5	0	0	0	0	0	0
2036	-252.5	30	0	0	0	0	0	0
2037	-250	40	0	0	0	0	0	0
2038	-257.5	45	0	0	0	0	0	0
2039	-245	60	0	0	0	0	0	0
2040	-232.5	70	0	0	0	0	0	0
2041	-227.5	72.5	0	0	0	0	0	0
2042	-205	82.5	0	0	0	0	0	0
2043	-187.5	95	0	0	0	0	0	0
2044	-187.5	95	0	0	0	0	0	0
2045	-192.5	95	0	0	0	0	0	0
2046	-185	97.5	0	0	0	0	0	0
2047	-190	87.5	0	0	0	0	0	0
2048	-217.5	67.5	0	0	0	0	0	0
2049	-230	55	0	0	0	0	0	0
2050	-242.5	47.5	0	0	0	0	0	0
2051	-260	30	0	0	0	0	0	0
2052	-272.5	22.5	0	0	0	0	0	0
2053	-280	25	0	0	0	0	0	0
2054	-275	22.5	0	0	0	0	0	0
2055	-270	25	0	0	0	0	0	0
2056	-272.5	27.5	0	0	0	0	0	0
2057	-272.5	25	0	0	0	0	0	0
2058	-255	40	0	0	0	0	0	0
2059	-237.5	52.5	0	0	0	0	0	0
2060	-230	60	0	0	0	0	0	0
2061	-210	72.5	0	0	0	0	0	0
2062	-190	85	0	0	0	0	0	0
2063	-175	92.5	0	0	0	0	0	0
2064	-177.5	90	0	0	0	0	0	0
2065	-172.5	100	0	0	0	0	0	0
2066	-157.5	112.5	0	0	0	0	0	0
2067	-150	125	0	0	0	0	0	0
2068	-142.5	135	0	0	0	0	0	0
2069	-147.5	132.5	0	0	0	0	0	0
2070	-150	135	0	0	0	0	0	0
2071	-165	125	0	0	0	0	0	0
2072	-175	125	0	0	0	0	0	0
2073	-165	140	0	0	0	0	0	0
2074	-157.5	135	0	0	0	0	0	0
2075	-147.5	137.5	0	0	0	0	0	0
2076	-135	137.5	0	0	0	0	0	0
2077	-122.5	145	0	0	0	0	0	0
2078	-117.5	142.5	0	0	0	0	0	0
2079	-125	135	0	0	0	0	0	0
2080	-117.5	145	0	0	0	0	0	0
2081	-115	145	0	0	0	0	0	0
2082	-107.5	150	0	0	0	0	0	0
2083	-90	175	0	0	0	0	0	0
2084	-70	202.5	0	0	0	0	0	0
2085	-25	255	0	0	0	0	0	0
2086	-7.5	280	0	0	0	0	0	0
2087	12.5	305	0	0	0	0	0	0
2088	72.5	370	0	0	0	0	0	0
2089	117.5	415	0	0	0	0	0	0
2090	180	475	0	0	0	0	0	0
2091	252.5	547.5	0	0	0	0	0	0
2092	300	597.5	0	0	0	0	0	0
2093	345	645	0	0	0	0	0	0
2094	400	702.5	0	0	0	0	0	0
2095	457.5	757.5	0	0	0	0	0	0
2096	525	830	0	0	0	0	0	0
2097	595	902.5	0	0	0	0	0	0
2098	652.5	957.5	0	0	0	0	0	0
2099	702.5	1012.5	0	0	0	0	0	0
2100	755	1070	0	0	0	0	0	0
2101	807.5	1117.5	0	0	0	0	0	0
2102	877.5	1175	0	0	0	0	0	0
2103	937.5	1220	0	0	0	0	0	0
2104	992.5	1265	0	0	0	0	0	0
2105	1045	1312.5	0	0	0	0	0	0
2106	1072.5	1335	0	0	0	0	0	0
2107	1130	1385	0	0	0	0	0	0
2108	1172.5	1437.5	0	0	0	0	0	0
2109	1210	1472.5	0	0	0	0	0	0
2110	1287.5	1542.5	0	0	0	0	0	0
2111	1347.5	1607.5	0	0	0	0	0	0
2112	1417.5	1677.5	0	0	0	0	0	0
2113	1492.5	1765	0	0	0	0	0	0
2114	1567.5	1845	0	0	0	0	0	0
2115	1647.5	1927.5	0	0	0	0	0	0
2116	1755	2030	0	0	0	0	0	0
2117	1890	2162.5	0	0	0	0	0	0
2118	2007.5	2282.5	0	0	0	0	0	0
2119	2142.5	2405	0	0	0	0	0	0
2120	2265	2527.5	0	0	0	0	0	0
2121	2377.5	2640	0	0	0	0	0	0
2122	2522.5	2772.5	0	0	0	0	0	0
2123	2660	2910	0	0	0	0	0	0
2124	2802.5	3057.5	0	0	0	0	0	0
2125	2957.5	3215	0	0	0	0	0	0
2126	3122.5	3382.5	0	0	0	0	0	0
2127	3295	3557.5	0	0	0	0	0	0
2128	3467.5	3732.5	0	0	0	0	0	0
2129	3702.5	3967.5	0	0	0	0	0	0
2130	3992.5	4255	0	0	0	0	0	0
2131	4287.5	4552.5	0	0	0	0	0	0
2132	4630	4902.5	0	0	0	0	0	0
2133	4992.5	5270	0	0	0	0	0	0
2134	5360	5632.5	0	0	0	0	0	0
2135	5760	6035	0	0	0	0	0	0
2136	6175	6452.5	0	0	0	0	0	0
2137	6615	6895	0	0	0	0	0	0
2138	7105	7382.5	0	0	0	0	0	0
2139	7640	7912.5	0	0	0	0	0	0
2140	8160	8437.5	0	0	0	0	0	0
2141	8732.5	8997.5	0	0	0	0	0	0
2142	9322.5	9582.5	0	0	0	0	0	0
2143	9887.5	10152.5	0	0	0	0	0	0
2144	10550	10810	0	0	0	0	0	0
2145	11250	11505	0	0	0	0	0	0
2146	11967.5	12222.5	0	0	0	0	0	0
2147	12772.5	13017.5	0	0	0	0	0	0
2148	13612.5	13855	0	0	0	0	0	0
2149	14477.5	14720	0	0	0	0	0	0
2150	15385	15635	0	0	0	0	0	0
2151	16307.5	16575	0	0	0	0	0	0
2152	17260	17542.5	0	0	0	0	0	0
2153	18262.5	18555	0	0	0	0	0	0
2154	19237.5	19532.5	0	0	0	0	0	0
2155	20182.5	20480	0	0	0	0	0	0
2156	21100	21397.5	0	0	0	0	0	0
2157	21975	22272.5	0	0	0	0	0	0
2158	22810	23117.5	0	0	0	0	0	0
2159	23597.5	23907.5	0	0	0	0	0	0
2160	24365	24670	0	0	0	0	0	0
2161	25097.5	25405	0	0	0	0	0	0
2162	25817.5	26117.5	0	0	0	0	0	0
2163	26532.5	26825	0	0	0	0	0	0
2164	27242.5	27540	0	0	0	0	0	0
2165	28000	28295	0	0	0	0	0	0
2166	28722.5	29010	0	0	0	0	0	0
2167	29407.5	29697.5	0	0	0	0	0	0
2168	30125	30412.5	0	0	0	0	0	0
2169	30767.5	31050	0	0	0	0	0	0
2170	31382.5	31662.5	0	0	0	0	0	0
2171	31990	32262.5	0	0	0	0	0	0
2172	32530	32800	0	0	0	0	0	0
2173	33040	33307.5	0	0	0	0	0	0
2174	33475	33740	0	0	0	0	0	0
2175	33875	34142.5	0	0	0	0	0	0
2176	34260	34537.5	0	0	0	0	0	0
2177	34610	34887.5	0	0	0	0	0	0
2178	34920	35192.5	0	0	0	0	0	0
2179	35210	35480	0	0	0	0	0	0
2180	35527.5	35792.5	0	0	0	0	0	0
2181	35810	36075	0	0	0	0	0	0
2182	36045	36312.5	0	0	0	0	0	0
2183	36302.5	36575	0	0	0	0	0	0
2184	36527.5	36795	0	0	0	0	0	0
2185	36722.5	36995	0	0	0	0	0	0
2186	36937.5	37207.5	0	0	0	0	0	0
2187	37090	37355	0	0	0	0	0	0
2188	37247.5	37510	0	0	0	0	0	0
2189	37442.5	37697.5	0	0	0	0	0	0
2190	37570	37820	0	0	0	0	0	0
2191	37702.5	37947.5	0	0	0	0	0	0
2192	37867.5	38097.5	0	0	0	0	0	0
2193	38012.5	38240	0	0	0	0	0	0
2194	38172.5	38392.5	0	0	0	0	0	0
2195	38290	38507.5	0	0	0	0	0	0
2196	38395	38615	0	0	0	0	0	0
2197	38530	38745	0	0	0	0	0	0
2198	38640	38860	0	0	0	0	0	0
2199	38722.5	38952.5	0	0	0	0	0	0
2200	38805	39035	0	0	0	0	0	0
2201	38922.5	39157.5	0	0	0	0	0	0
2202	39012.5	39250	0	0	0	0	0	0
2203	39100	39340	0	0	0	0	0	0
2204	39222.5	39460	0	0	0	0	0	0
2205	39350	39580	0	0	0	0	0	0
2206	39525	39747.5	0	0	0	0	0	0
2207	39670	39885	0	0	0	0	0	0
2208	39810	40027.5	0	0	0	0	0	0
2209	39982.5	40205	0	0	0	0	0	0
2210	40117.5	40342.5	0	0	0	0	0	0
2211	40272.5	40500	0	0	0	0	0	0
2212	40442.5	40670	0	0	0	0	0	0
2213	40570	40790	0	0	0	0	0	0
2214	40695	40915	0	0	0	0	0	0
2215	40802.5	41017.5	0	0	0	0	0	0
2216	40910	41135	0	0	0	0	0	0
2217	41037.5	41265	0	0	0	0	0	0
2218	41150	41367.5	0	0	0	0	0	0
2219	41290	41497.5	0	0	0	0	0	0
2220	41422.5	41612.5	0	0	0	0	0	0
2221	41502.5	41690	0	0	0	0	0	0
2222	41560	41745	0	0	0	0	0	0
2223	41607.5	41795	0	0	0	0	0	0
2224	41627.5	41817.5	0	0	0	0	0	0
2225	41610	41795	0	0	0	0	0	0
2226	41552.5	41735	0	0	0	0	0	0
2227	41435	41612.5	0	0	0	0	0	0
2228	41297.5	41485	0	0	0	0	0	0
2229	41142.5	41340	0	0	0	0	0	0
2230	40950	41167.5	0	0	0	0	0	0
2231	40767.5	41000	0	0	0	0	0	0
2232	40572.5	40805	0	0	0	0	0	0
2233	40347.5	40590	0	0	0	0	0	0
2234	40130	40377.5	0	0	0	0	0	0
2235	39912.5	40157.5	0	0	0	0	0	0
2236	39672.5	39925	0	0	0	0	0	0
2237	39470	39717.5	0	0	0	0	0	0
2238	39280	39527.5	0	0	0	0	0	0
2239	39062.5	39315	0	0	0	0	0	0
2240	38860	39112.5	0	0	0	0	0	0
2241	38645	38907.5	0	0	0	0	0	0
2242	38462.5	38730	0	0	0	0	0	0
2243	38342.5	38625	0	0	0	0	0	0
2244	38217.5	38517.5	0	0	0	0	0	0
2245	38125	38445	0	0	0	0	0	0
2246	38060	38405	0	0	0	0	0	0
2247	37982.5	38342.5	0	0	0	0	0	0
2248	37897.5	38272.5	0	0	0	0	0	0
2249	37815	38197.5	0	0	0	0	0	0
2250	37752.5	38135	0	0	0	0	0	0
2251	37702.5	38080	0	0	0	0	0	0
2252	37635	38012.5	0	0	0	0	0	0
2253	37550	37920	0	0	0	0	0	0
2254	37467.5	37822.5	0	0	0	0	0	0
2255	37397.5	37730	0	0	0	0	0	0
2256	37302.5	37620	0	0	0	0	0	0
2257	37207.5	37515	0	0	0	0	0	0
2258	37127.5	37420	0	0	0	0	0	0
2259	37030	37310	0	0	0	0	0	0
2260	36930	37192.5	0	0	0	0	0	0
2261	36820	37067.5	0	0	0	0	0	0
2262	36715	36947.5	0	0	0	0	0	0
2263	36610	36825	0	0	0	0	0	0
2264	36507.5	36705	0	0	0	0	0	0
2265	36390	36582.5	0	0	0	0	0	0
2266	36270	36450	0	0	0	0	0	0
2267	36152.5	36325	0	0	0	0	0	0
2268	36050	36212.5	0	0	0	0	0	0
2269	35972.5	36127.5	0	0	0	0	0	0
2270	35905	36057.5	0	0	0	0	0	0
2271	35855	35990	0	0	0	0	0	0
2272	35787.5	35917.5	0	0	0	0	0	0
2273	35702.5	35822.5	0	0	0	0	0	0
2274	35627.5	35735	0	0	0	0	0	0
2275	35527.5	35640	0	0	0	0	0	0
2276	35417.5	35517.5	0	0	0	0	0	0
2277	35335	35427.5	0	0	0	0	0	0
2278	35235	35325	0	0	0	0	0	0
2279	35117.5	35202.5	0	0	0	0	0	0
2280	35017.5	35110	0	0	0	0	0	0
2281	34912.5	35012.5	0	0	0	0	0	0
2282	34812.5	34915	0	0	0	0	0	0
2283	34727.5	34845	0	0	0	0	0	0
2284	34632.5	34750	0	0	0	0	0	0
2285	34550	34655	0	0	0	0	0	0
2286	34472.5	34580	0	0	0	0	0	0
2287	34377.5	34470	0	0	0	0	0	0
2288	34265	34360	0	0	0	0	0	0
2289	34150	34250	0	0	0	0	0	0
2290	34020	34107.5	0	0	0	0	0	0
2291	33857.5	33950	0	0	0	0	0	0
2292	33687.5	33775	0	0	0	0	0	0
2293	33480	33560	0	0	0	0	0	0
2294	33265	33355	0	0	0	0	0	0
2295	33052.5	33140	0	0	0	0	0	0
2296	32832.5	32927.5	0	0	0	0	0	0
2297	32627.5	32740	0	0	0	0	0	0
2298	32447.5	32542.5	0	0	0	0	0	0
2299	32267.5	32342.5	0	0	0	0	0	0
2300	32092.5	32155	0	0	0	0	0	0
2301	31932.5	31970	0	0	0	0	0	0
2302	31755	31795	0	0	0	0	0	0
2303	31615	31647.5	0	0	0	0	0	0
2304	31485	31515	0	0	0	0	0	0
2305	31347.5	31400	0	0	0	0	0	0
2306	31212.5	31275	0	0	0	0	0	0
2307	31055	31135	0	0	0	0	0	0
2308	30882.5	31010	0	0	0	0	0	0
2309	30662.5	30855	0	0	0	0	0	0
2310	30420	30685	0	0	0	0	0	0
2311	30157.5	30507.5	0	0	0	0	0	0
2312	29880	30300	0	0	0	0	0	0
2313	29600	30072.5	0	0	0	0	0	0
2314	29272.5	29790	0	0	0	0	0	0
2315	28935	29465	0	0	0	0	0	0
2316	28585	29117.5	0	0	0	0	0	0
2317	28140	28680	0	0	0	0	0	0
2318	27590	28092.5	0	0	0	0	0	0
2319	26930	27372.5	0	0	0	0	0	0
2320	26122.5	26497.5	0	0	0	0	0	0
2321	25100	25375	0	0	0	0	0	0
2322	23785	23967.5	0	0	0	0	0	0
2323	22227.5	22322.5	0	0	0	0	0	0
2324	20457.5	20475	0	0	0	0	0	0
2325	18440	18412.5	0	0	0	0	0	0
2326	16232.5	16162.5	0	0	0	0	0	0
2327	13905	13787.5	0	0	0	0	0	0
2328	11525	11385	0	0	0	0	0	0
2329	9087.5	8942.5	0	0	0	0	0	0
2330	6657.5	6525	0	0	0	0	0	0
2331	4380	4257.5	0	0	0	0	0	0
2332	2280	2182.5	0	0	0	0	0	0
2333	362.5	290	0	0	0	0	0	0
2334	-1380	-1422.5	0	0	0	0	0	0
2335	-2912.5	-2932.5	0	0	0	0	0	0
2336	-4255	-4262.5	0	0	0	0	0	0
2337	-5470	-5437.5	0	0	0	0	0	0
2338	-6505	-6435	0	0	0	0	0	0
2339	-7392.5	-7312.5	0	0	0	0	0	0
2340	-8192.5	-8090	0	0	0	0	0	0
2341	-8890	-8775	0	0	0	0	0	0
2342	-9540	-9422.5	0	0	0	0	0	0
2343	-10122.5	-9997.5	0	0	0	0	0	0
2344	-10640	-10525	0	0	0	0	0	0
2345	-11142.5	-11027.5	0	0	0	0	0	0
2346	-11587.5	-11470	0	0	0	0	0	0
2347	-11997.5	-11882.5	0	0	0	0	0	0
2348	-12397.5	-12275	0	0	0	0	0	0
2349	-12767.5	-12640	0	0	0	0	0	0
2350	-13095	-12972.5	0	0	0	0	0	0
2351	-13405	-13272.5	0	0	0	0	0	0
2352	-13697.5	-13562.5	0	0	0	0	0	0
2353	-13967.5	-13830	0	0	0	0	0	0
2354	-14212.5	-14067.5	0	0	0	0	0	0
2355	-14440	-14295	0	0	0	0	0	0
2356	-14647.5	-14507.5	0	0	0	0	0	0
2357	-14825	-14700	0	0	0	0	0	0
2358	-15000	-14882.5	0	0	0	0	0	0
2359	-15177.5	-15057.5	0	0	0	0	0	0
2360	-15357.5	-15232.5	0	0	0	0	0	0
2361	-15525	-15397.5	0	0	0	0	0	0
2362	-15672.5	-15542.5	0	0	0	0	0	0
2363	-15830	-15687.5	0	0	0	0	0	0
2364	-15982.5	-15832.5	0	0	0	0	0	0
2365	-16145	-15987.5	0	0	0	0	0	0
2366	-16312.5	-16140	0	0	0	0	0	0
2367	-16475	-16300	0	0	0	0	0	0
2368	-16627.5	-16462.5	0	0	0	0	0	0
2369	-16765	-16610	0	0	0	0	0	0
2370	-16900	-16752.5	0	0	0	0	0	0
2371	-17040	-16895	0	0	0	0	0	0
2372	-17170	-17025	0	0	0	0	0	0
2373	-17270	-17125	0	0	0	0	0	0
2374	-17355	-17205	0	0	0	0	0	0
2375	-17447.5	-17287.5	0	0	0	0	0	0
2376	-17512.5	-17350	0	0	0	0	0	0
2377	-17580	-17402.5	0	0	0	0	0	0
2378	-17645	-17455	0	0	0	0	0	0
2379	-17687.5	-17497.5	0	0	0	0	0	0
2380	-17732.5	-17530	0	0	0	0	0	0
2381	-17760	-17555	0	0	0	0	0	0
2382	-17785	-17590	0	0	0	0	0	0
2383	-17822.5	-17627.5	0	0	0	0	0	0
2384	-17845	-17655	0	0	0	0	0	0
2385	-17855	-17677.5	0	0	0	0	0	0
2386	-17875	-17700	0	0	0	0	0	0
2387	-17897.5	-17725	0	0	0	0	0	0
2388	-17917.5	-17740	0	0	0	0	0	0
2389	-17952.5	-17762.5	0	0	0	0	0	0
2390	-17990	-17797.5	0	0	0	0	0	0
2391	-18025	-17830	0	0	0	0	0	0
2392	-18060	-17865	0	0	0	0	0	0
2393	-18087.5	-17897.5	0	0	0	0	0	0
2394	-18125	-17937.5	0	0	0	0	0	0
2395	-18150	-17960	0	0	0	0	0	0
2396	-18167.5	-17982.5	0	0	0	0	0	0
2397	-18195	-18015	0	0	0	0	0	0
2398	-18212.5	-18030	0	0	0	0	0	0
2399	-18215	-18032.5	0	0	0	0	0	0
2400	-18212.5	-18027.5	0	0	0	0	0	0
2401	-18215	-18027.5	0	0	0	0	0	0
2402	-18215	-18020	0	0	0	0	0	0
2403	-18212.5	-18010	0	0	0	0	0	0
2404	-18215	-18007.5	0	0	0	0	0	0
2405	-18207.5	-18000	0	0	0	0	0	0
2406	-18202.5	-17982.5	0	0	0	0	0	0
2407	-18185	-17957.5	0	0	0	0	0	0
2408	-18165	-17945	0	0	0	0	0	0
2409	-18167.5	-17945	0	0	0	0	0	0
2410	-18165	-17952.5	0	0	0	0	0	0
2411	-18155	-17950	0	0	0	0	0	0
2412	-18155	-17947.5	0	0	0	0	0	0
2413	-18150	-17942.5	0	0	0	0	0	0
2414	-18145	-17930	0	0	0	0	0	0
2415	-18142.5	-17917.5	0	0	0	0	0	0
2416	-18150	-17920	0	0	0	0	0	0
2417	-18157.5	-17925	0	0	0	0	0	0
2418	-18135	-17895	0	0	0	0	0	0
2419	-18135	-17892.5	0	0	0	0	0	0
2420	-18125	-17875	0	0	0	0	0	0
2421	-18095	-17845	0	0	0	0	0	0
2422	-18087.5	-17840	0	0	0	0	0	0
2423	-18055	-17812.5	0	0	0	0	0	0
2424	-18042.5	-17800	0	0	0	0	0	0
2425	-18040	-17795	0	0	0	0	0	0
2426	-17995	-17757.5	0	0	0	0	0	0
2427	-17985	-17750	0	0	0	0	0	0
2428	-17982.5	-17750	0	0	0	0	0	0
2429	-17962.5	-17737.5	0	0	0	0	0	0
2430	-17962.5	-17740	0	0	0	0	0	0
2431	-17962.5	-17740	0	0	0	0	0	0
2432	-17980	-17745	0	0	0	0	0	0
2433	-17995	-17750	0	0	0	0	0	0
2434	-18002.5	-17755	0	0	0	0	0	0
2435	-18015	-17770	0	0	0	0	0	0
2436	-18027.5	-17787.5	0	0	0	0	0	0
2437	-18032.5	-17795	0	0	0	0	0	0
2438	-18030	-17790	0	0	0	0	0	0
2439	-18032.5	-17790	0	0	0	0	0	0
2440	-18027.5	-17780	0	0	0	0	0	0
2441	-18010	-17760	0	0	0	0	0	0
2442	-17997.5	-17752.5	0	0	0	0	0	0
2443	-17975	-17735	0	0	0	0	0	0
2444	-17950	-17710	0	0	0	0	0	0
2445	-17932.5	-17687.5	0	0	0	0	0	0
2446	-17905	-17647.5	0	0	0	0	0	0
2447	-17887.5	-17625	0	0	0	0	0	0
2448	-17877.5	-17607.5	0	0	0	0	0	0
2449	-17850	-17575	0	0	0	0	0	0
2450	-17830	-17557.5	0	0	0	0	0	0
2451	-17812.5	-17542.5	0	0	0	0	0	0
2452	-17790	-17520	0	0	0	0	0	0
2453	-17772.5	-17500	0	0	0	0	0	0
2454	-17750	-17482.5	0	0	0	0	0	0
2455	-17720	-17457.5	0	0	0	0	0	0
2456	-17697.5	-17432.5	0	0	0	0	0	0
2457	-17665	-17402.5	0	0	0	0	0	0
2458	-17622.5	-17355	0	0	0	0	0	0
2459	-17597.5	-17320	0	0	0	0	0	0
2460	-17565	-17282.5	0	0	0	0	0	0
2461	-17532.5	-17237.5	0	0	0	0	0	0
2462	-17502.5	-17200	0	0	0	0	0	0
2463	-17467.5	-17160	0	0	0	0	0	0
2464	-17435	-17120	0	0	0	0	0	0
2465	-17395	-17092.5	0	0	0	0	0	0
2466	-17362.5	-17067.5	0	0	0	0	0	0
2467	-17330	-17035	0	0	0	0	0	0
2468	-17297.5	-17010	0	0	0	0	0	0
2469	-17272.5	-16987.5	0	0	0	0	0	0
2470	-17250	-16962.5	0	0	0	0	0	0
2471	-17225	-16935	0	0	0	0	0	0
2472	-17190	-16905	0	0	0	0	0	0
2473	-17162.5	-16870	0	0	0	0	0	0
2474	-17140	-16840	0	0	0	0	0	0
2475	-17090	-16785	0	0	0	0	0	0
2476	-17045	-16730	0	0	0	0	0	0
2477	-17002.5	-16687.5	0	0	0	0	0	0
2478	-16947.5	-16635	0	0	0	0	0	0
2479	-16885	-16577.5	0	0	0	0	0	0
2480	-16825	-16522.5	0	0	0	0	0	0
2481	-16762.5	-16470	0	0	0	0	0	0
2482	-16707.5	-16420	0	0	0	0	0	0
2483	-16662.5	-16372.5	0	0	0	0	0	0
2484	-16605	-16325	0	0	0	0	0	0
2485	-16565	-16285	0	0	0	0	0	0
2486	-16535	-16247.5	0	0	0	0	0	0
2487	-16500	-16210	0	0	0	0	0	0
2488	-16457.5	-16162.5	0	0	0	0	0	0
2489	-16417.5	-16120	0	0	0	0	0	0
2490	-16380	-16080	0	0	0	0	0	0
2491	-16337.5	-16037.5	0	0	0	0	0	0
2492	-16295	-15992.5	0	0	0	0	0	0
2493	-16242.5	-15942.5	0	0	0	0	0	0
2494	-16200	-15892.5	0	0	0	0	0	0
2495	-16155	-15845	0	0	0	0	0	0
2496	-16097.5	-15792.5	0	0	0	0	0	0
2497	-16027.5	-15730	0	0	0	0	0	0
2498	-15977.5	-15685	0	0	0	0	0	0
2499	-15927.5	-15642.5	0	0	0	0	0	0
2500	-15857.5	-15577.5	0	0	0	0	0	0
2501	-15795	-15515	0	0	0	0	0	0
2502	-15717.5	-15437.5	0	0	0	0	0	0
2503	-15637.5	-15365	0	0	0	0	0	0
2504	-15575	-15307.5	0	0	0	0	0	0
2505	-15510	-15230	0	0	0	0	0	0
2506	-15455	-15162.5	0	0	0	0	0	0
2507	-15400	-15095	0	0	0	0	0	0
2508	-15327.5	-15010	0	0	0	0	0	0
2509	-15247.5	-14925	0	0	0	0	0	0
2510	-15170	-14842.5	0	0	0	0	0	0
2511	-15090	-14762.5	0	0	0	0	0	0
2512	-15005	-14682.5	0	0	0	0	0	0
2513	-14912.5	-14585	0	0	0	0	0	0
2514	-14815	-14485	0	0	0	0	0	0
2515	-14720	-14402.5	0	0	0	0	0	0
2516	-14630	-14322.5	0	0	0	0	0	0
2517	-14557.5	-14257.5	0	0	0	0	0	0
2518	-14505	-14207.5	0	0	0	0	0	0
2519	-14465	-14170	0	0	0	0	0	0
2520	-14425	-14132.5	0	0	0	0	0	0
2521	-14407.5	-14110	0	0	0	0	0	0
2522	-14387.5	-14087.5	0	0	0	0	0	0
2523	-14355	-14055	0	0	0	0	0	0
2524	-14340	-14040	0	0	0	0	0	0
2525	-14327.5	-14020	0	0	0	0	0	0
2526	-14330	-14010	0	0	0	0	0	0
2527	-14320	-14005	0	0	0	0	0	0
2528	-14310	-13995	0	0	0	0	0	0
2529	-14325	-13997.5	0	0	0	0	0	0
2530	-14317.5	-13982.5	0	0	0	0	0	0
2531	-14312.5	-13972.5	0	0	0	0	0	0
2532	-14327.5	-13972.5	0	0	0	0	0	0
2533	-14347.5	-13982.5	0	0	0	0	0	0
2534	-14365	-13987.5	0	0	0	0	0	0
2535	-14360	-13985	0	0	0	0	0	0
2536	-14362.5	-13987.5	0	0	0	0	0	0
2537	-14372.5	-13985	0	0	0	0	0	0
2538	-14372.5	-13977.5	0	0	0	0	0	0
2539	-14367.5	-13970	0	0	0	0	0	0
2540	-14387.5	-13972.5	0	0	0	0	0	0
2541	-14405	-13975	0	0	0	0	0	0
2542	-14417.5	-13975	0	0	0	0	0	0
2543	-14440	-13987.5	0	0	0	0	0	0
2544	-14445	-13982.5	0	0	0	0	0	0
2545	-14460	-13980	0	0	0	0	0	0
2546	-14470	-13980	0	0	0	0	0	0
2547	-14475	-13975	0	0	0	0	0	0
2548	-14490	-13975	0	0	0	0	0	0
2549	-14497.5	-13975	0	0	0	0	0	0
2550	-14495	-13965	0	0	0	0	0	0
2551	-14490	-13957.5	0	0	0	0	0	0
2552	-14497.5	-13957.5	0	0	0	0	0	0
2553	-14492.5	-13950	0	0	0	0	0	0
2554	-14500	-13962.5	0	0	0	0	0	0
2555	-14517.5	-13980	0	0	0	0	0	0
2556	-14510	-13985	0	0	0	0	0	0
2557	-14527.5	-14007.5	0	0	0	0	0	0
2558	-14532.5	-14022.5	0	0	0	0	0	0
2559	-14537.5	-14042.5	0	0	0	0	0	0
2560	-14560	-14085	0	0	0	0	0	0
2561	-14575	-14127.5	0	0	0	0	0	0
2562	-14590	-14172.5	0	0	0	0	0	0
2563	-14605	-14215	0	0	0	0	0	0
2564	-14612.5	-14255	0	0	0	0	0	0
2565	-14615	-14285	0	0	0	0	0	0
2566	-14625	-14310	0	0	0	0	0	0
2567	-14630	-14332.5	0	0	0	0	0	0
2568	-14645	-14357.5	0	0	0	0	0	0
2569	-14655	-14372.5	0	0	0	0	0	0
2570	-14657.5	-14385	0	0	0	0	0	0
2571	-14680	-14405	0	0	0	0	0	0
2572	-14677.5	-14407.5	0	0	0	0	0	0
2573	-14680	-14407.5	0	0	0	0	0	0
2574	-14692.5	-14412.5	0	0	0	0	0	0
2575	-14680	-14410	0	0	0	0	0	0
2576	-14695	-14422.5	0	0	0	0	0	0
2577	-14695	-14425	0	0	0	0	0	0
2578	-14692.5	-14427.5	0	0	0	0	0	0
2579	-14710	-14445	0	0	0	0	0	0
2580	-14717.5	-14447.5	0	0	0	0	0	0
2581	-14712.5	-14442.5	0	0	0	0	0	0
2582	-14705	-14437.5	0	0	0	0	0	0
2583	-14715	-14440	0	0	0	0	0	0
2584	-14720	-14450	0	0	0	0	0	0
2585	-14727.5	-14452.5	0	0	0	0	0	0
2586	-14737.5	-14462.5	0	0	0	0	0	0
2587	-14737.5	-14465	0	0	0	0	0	0
2588	-14735	-14462.5	0	0	0	0	0	0
2589	-14730	-14470	0	0	0	0	0	0
2590	-14712.5	-14465	0	0	0	0	0	0
2591	-14710	-14462.5	0	0	0	0	0	0
2592	-14725	-14480	0	0	0	0	0	0
2593	-14735	-14492.5	0	0	0	0	0	0
2594	-14755	-14502.5	0	0	0	0	0	0
2595	-14782.5	-14522.5	0	0	0	0	0	0
2596	-14795	-14535	0	0	0	0	0	0
2597	-14807.5	-14545	0	0	0	0	0	0
2598	-14825	-14562.5	0	0	0	0	0	0
2599	-14835	-14575	0	0	0	0	0	0
2600	-14857.5	-14602.5	0	0	0	0	0	0
2601	-14872.5	-14625	0	0	0	0	0	0
2602	-14880	-14630	0	0	0	0	0	0
2603	-14877.5	-14635	0	0	0	0	0	0
2604	-14862.5	-14627.5	0	0	0	0	0	0
2605	-14845	-14617.5	0	0	0	0	0	0
2606	-14812.5	-14597.5	0	0	0	0	0	0
2607	-14792.5	-14570	0	0	0	0	0	0
2608	-14777.5	-14540	0	0	0	0	0	0
2609	-14747.5	-14485	0	0	0	0	0	0
2610	-14722.5	-14412.5	0	0	0	0	0	0
2611	-14697.5	-14332.5	0	0	0	0	0	0
2612	-14682.5	-14247.5	0	0	0	0	0	0
2613	-14670	-14162.5	0	0	0	0	0	0
2614	-14652.5	-14075	0	0	0	0	0	0
2615	-14655	-14002.5	0	0	0	0	0	0
2616	-14662.5	-13957.5	0	0	0	0	0	0
2617	-14675	-13942.5	0	0	0	0	0	0
2618	-14697.5	-13962.5	0	0	0	0	0	0
2619	-14742.5	-14012.5	0	0	0	0	0	0
2620	-14785	-14095	0	0	0	0	0	0
2621	-14822.5	-14202.5	0	0	0	0	0	0
2622	-14855	-14317.5	0	0	0	0	0	0
2623	-14877.5	-14445	0	0	0	0	0	0
2624	-14897.5	-14567.5	0	0	0	0	0	0
2625	-14900	-14677.5	0	0	0	0	0	0
2626	-14902.5	-14760	0	0	0	0	0	0
2627	-14897.5	-14807.5	0	0	0	0	0	0
2628	-14885	-14830	0	0	0	0	0	0
2629	-14872.5	-14827.5	0	0	0	0	0	0
2630	-14852.5	-14810	0	0	0	0	0	0
2631	-14835	-14777.5	0	0	0	0	0	0
2632	-14820	-14740	0	0	0	0	0	0
2633	-14822.5	-14712.5	0	0	0	0	0	0
2634	-14845	-14692.5	0	0	0	0	0	0
2635	-14872.5	-14680	0	0	0	0	0	0
2636	-14900	-14675	0	0	0	0	0	0
2637	-14925	-14667.5	0	0	0	0	0	0
2638	-14932.5	-14657.5	0	0	0	0	0	0
2639	-14930	-14637.5	0	0	0	0	0	0
2640	-14930	-14627.5	0	0	0	0	0	0
2641	-14932.5	-14617.5	0	0	0	0	0	0
2642	-14937.5	-14610	0	0	0	0	0	0
2643	-14925	-14595	0	0	0	0	0	0
2644	-14905	-14570	0	0	0	0	0	0
2645	-14887.5	-14550	0	0	0	0	0	0
2646	-14862.5	-14527.5	0	0	0	0	0	0
2647	-14847.5	-14515	0	0	0	0	0	0
2648	-14830	-14505	0	0	0	0	0	0
2649	-14817.5	-14500	0	0	0	0	0	0
2650	-14807.5	-14495	0	0	0	0	0	0
2651	-14807.5	-14495	0	0	0	0	0	0
2652	-14810	-14497.5	0	0	0	0	0	0
2653	-14817.5	-14500	0	0	0	0	0	0
2654	-14812.5	-14495	0	0	0	0	0	0
2655	-14802.5	-14485	0	0	0	0	0	0
2656	-14792.5	-14465	0	0	0	0	0	0
2657	-14765	-14440	0	0	0	0	0	0
2658	-14750	-14415	0	0	0	0	0	0
2659	-14730	-14392.5	0	0	0	0	0	0
2660	-14697.5	-14360	0	0	0	0	0	0
2661	-14655	-14327.5	0	0	0	0	0	0
2662	-14607.5	-14292.5	0	0	0	0	0	0
2663	-14570	-14265	0	0	0	0	0	0
2664	-14522.5	-14237.5	0	0	0	0	0	0
2665	-14475	-14202.5	0	0	0	0	0	0
2666	-14447.5	-14172.5	0	0	0	0	0	0
2667	-14417.5	-14140	0	0	0	0	0	0
2668	-14367.5	-14090	0	0	0	0	0	0
2669	-14332.5	-14045	0	0	0	0	0	0
2670	-14292.5	-14002.5	0	0	0	0	0	0
2671	-14257.5	-13952.5	0	0	0	0	0	0
2672	-14210	-13900	0	0	0	0	0	0
2673	-14152.5	-13840	0	0	0	0	0	0
2674	-14112.5	-13787.5	0	0	0	0	0	0
2675	-14065	-13742.5	0	0	0	0	0	0
2676	-14005	-13687.5	0	0	0	0	0	0
2677	-13957.5	-13637.5	0	0	0	0	0	0
2678	-13905	-13590	0	0	0	0	0	0
2679	-13852.5	-13535	0	0	0	0	0	0
2680	-13797.5	-13475	0	0	0	0	0	0
2681	-13735	-13410	0	0	0	0	0	0
2682	-13687.5	-13350	0	0	0	0	0	0
2683	-13620	-13275	0	0	0	0	0	0
2684	-13552.5	-13202.5	0	0	0	0	0	0
2685	-13492.5	-13132.5	0	0	0	0	0	0
2686	-13417.5	-13057.5	0	0	0	0	0	0
2687	-13360	-13000	0	0	0	0	0	0
2688	-13287.5	-12932.5	0	0	0	0	0	0
2689	-13217.5	-12862.5	0	0	0	0	0	0
2690	-13155	-12802.5	0	0	0	0	0	0
2691	-13072.5	-12727.5	0	0	0	0	0	0
2692	-13010	-12665	0	0	0	0	0	0
2693	-12945	-12602.5	0	0	0	0	0	0
2694	-12867.5	-12522.5	0	0	0	0	0	0
2695	-12805	-12462.5	0	0	0	0	0	0
2696	-12725	-12385	0	0	0	0	0	0
2697	-12635	-12295	0	0	0	0	0	0
2698	-12557.5	-12215	0	0	0	0	0	0
2699	-12460	-12130	0	0	0	0	0	0
2700	-12372.5	-12045	0	0	0	0	0	0
2701	-12295	-11972.5	0	0	0	0	0	0
2702	-12195	-11880	0	0	0	0	0	0
2703	-12112.5	-11802.5	0	0	0	0	0	0
2704	-12037.5	-11730	0	0	0	0	0	0
2705	-11945	-11640	0	0	0	0	0	0
2706	-11885	-11572.5	0	0	0	0	0	0
2707	-11822.5	-11515	0	0	0	0	0	0
2708	-11747.5	-11442.5	0	0	0	0	0	0
2709	-11700	-11385	0	0	0	0	0	0
2710	-11635	-11317.5	0	0	0	0	0	0
2711	-11555	-11232.5	0	0	0	0	0	0
2712	-11482.5	-11150	0	0	0	0	0	0
2713	-11392.5	-11052.5	0	0	0	0	0	0
2714	-11302.5	-10952.5	0	0	0	0	0	0
2715	-11217.5	-10860	0	0	0	0	0	0
2716	-11105	-10750	0	0	0	0	0	0
2717	-11002.5	-10650	0	0	0	0	0	0
2718	-10905	-10547.5	0	0	0	0	0	0
2719	-10795	-10440	0	0	0	0	0	0
2720	-10697.5	-10347.5	0	0	0	0	0	0
2721	-10605	-10265	0	0	0	0	0	0
2722	-10532.5	-10195	0	0	0	0	0	0
2723	-10470	-10137.5	0	0	0	0	0	0
2724	-10410	-10082.5	0	0	0	0	0	0
2725	-10355	-10025	0	0	0	0	0	0
2726	-10277.5	-9952.5	0	0	0	0	0	0
2727	-10200	-9867.5	0	0	0	0	0	0
2728	-10117.5	-9777.5	0	0	0	0	0	0
2729	-10022.5	-9680	0	0	0	0	0	0
2730	-9945	-9590	0	0	0	0	0	0
2731	-9855	-9497.5	0	0	0	0	0	0
2732	-9747.5	-9387.5	0	0	0	0	0	0
2733	-9640	-9275	0	0	0	0	0	0
2734	-9507.5	-9152.5	0	0	0	0	0	0
2735	-9392.5	-9040	0	0	0	0	0	0
2736	-9292.5	-8945	0	0	0	0	0	0
2737	-9195	-8862.5	0	0	0	0	0	0
2738	-9115	-8782.5	0	0	0	0	0	0
2739	-9037.5	-8710	0	0	0	0	0	0
2740	-8952.5	-8622.5	0	0	0	0	0	0
2741	-8870	-8535	0	0	0	0	0	0
2742	-8787.5	-8452.5	0	0	0	0	0	0
2743	-8702.5	-8362.5	0	0	0	0	0	0
2744	-8620	-8277.5	0	0	0	0	0	0
2745	-8535	-8187.5	0	0	0	0	0	0
2746	-8447.5	-8095	0	0	0	0	0	0
2747	-8360	-8007.5	0	0	0	0	0	0
2748	-8267.5	-7910	0	0	0	0	0	0
2749	-8170	-7815	0	0	0	0	0	0
2750	-8075	-7722.5	0	0	0	0	0	0
2751	-7987.5	-7630	0	0	0	0	0	0
2752	-7897.5	-7542.5	0	0	0	0	0	0
2753	-7807.5	-7450	0	0	0	0	0	0
2754	-7725	-7365	0	0	0	0	0	0
2755	-7645	-7277.5	0	0	0	0	0	0
2756	-7552.5	-7182.5	0	0	0	0	0	0
2757	-7470	-7100	0	0	0	0	0	0
2758	-7380	-7010	0	0	0	0	0	0
2759	-7287.5	-6922.5	0	0	0	0	0	0
2760	-7205	-6840	0	0	0	0	0	0
2761	-7120	-6752.5	0	0	0	0	0	0
2762	-7045	-6672.5	0	0	0	0	0	0
2763	-6955	-6587.5	0	0	0	0	0	0
2764	-6865	-6497.5	0	0	0	0	0	0
2765	-6782.5	-6415	0	0	0	0	0	0
2766	-6685	-6330	0	0	0	0	0	0
2767	-6597.5	-6250	0	0	0	0	0	0
2768	-6507.5	-6162.5	0	0	0	0	0	0
2769	-6422.5	-6075	0	0	0	0	0	0
2770	-6340	-5990	0	0	0	0	0	0
2771	-6245	-5895	0	0	0	0	0	0
2772	-6165	-5812.5	0	0	0	0	0	0
2773	-6087.5	-5732.5	0	0	0	0	0	0
2774	-6000	-5647.5	0	0	0	0	0	0
2775	-5930	-5570	0	0	0	0	0	0
2776	-5860	-5487.5	0	0	0	0	0	0
2777	-5777.5	-5397.5	0	0	0	0	0	0
2778	-5715	-5325	0	0	0	0	0	0
2779	-5625	-5237.5	0	0	0	0	0	0
2780	-5530	-5157.5	0	0	0	0	0	0
2781	-5437.5	-5075	0	0	0	0	0	0
2782	-5317.5	-4982.5	0	0	0	0	0	0
2783	-5220	-4902.5	0	0	0	0	0	0
2784	-5137.5	-4810	0	0	0	0	0	0
2785	-5047.5	-4725	0	0	0	0	0	0
2786	-4947.5	-4627.5	0	0	0	0	0	0
2787	-4855	-4532.5	0	0	0	0	0	0
2788	-4765	-4437.5	0	0	0	0	0	0
2789	-4672.5	-4337.5	0	0	0	0	0	0
2790	-4587.5	-4245	0	0	0	0	0	0
2791	-4505	-4152.5	0	0	0	0	0	0
2792	-4420	-4057.5	0	0	0	0	0	0
2793	-4330	-3965	0	0	0	0	0	0
2794	-4227.5	-3865	0	0	0	0	0	0
2795	-4122.5	-3765	0	0	0	0	0	0
2796	-4032.5	-3680	0	0	0	0	0	0
2797	-3942.5	-3590	0	0	0	0	0	0
2798	-3840	-3500	0	0	0	0	0	0
2799	-3765	-3425	0	0	0	0	0	0
2800	-3690	-3347.5	0	0	0	0	0	0
2801	-3607.5	-3267.5	0	0	0	0	0	0
2802	-3540	-3195	0	0	0	0	0	0
2803	-3465	-3115	0	0	0	0	0	0
2804	-3377.5	-3027.5	0	0	0	0	0	0
2805	-3295	-2942.5	0	0	0	0	0	0
2806	-3202.5	-2847.5	0	0	0	0	0	0
2807	-3107.5	-2757.5	0	0	0	0	0	0
2808	-3025	-2672.5	0	0	0	0	0	0
2809	-2927.5	-2572.5	0	0	0	0	0	0
2810	-2825	-2477.5	0	0	0	0	0	0
2811	-2735	-2385	0	0	0	0	0	0
2812	-2620	-2277.5	0	0	0	0	0	0
2813	-2522.5	-2187.5	0	0	0	0	0	0
2814	-2445	-2107.5	0	0	0	0	0	0
2815	-2357.5	-2027.5	0	0	0	0	0	0
2816	-2270	-1957.5	0	0	0	0	0	0
2817	-2195	-1885	0	0	0	0	0	0
2818	-2115	-1815	0	0	0	0	0	0
2819	-2030	-1737.5	0	0	0	0	0	0
2820	-1965	-1660	0	0	0	0	0	0
2821	-1880	-1577.5	0	0	0	0	0	0
2822	-1800	-1487.5	0	0	0	0	0	0
2823	-1740	-1417.5	0	0	0	0	0	0
2824	-1640	-1320	0	0	0	0	0	0
2825	-1545	-1217.5	0	0	0	0	0	0
2826	-1467.5	-1137.5	0	0	0	0	0	0
2827	-1365	-1030	0	0	0	0	0	0
2828	-1272.5	-927.5	0	0	0	0	0	0
2829	-1190	-842.5	0	0	0	0	0	0
2830	-1077.5	-745	0	0	0	0	0	0
2831	-995	-667.5	0	0	0	0	0	0
2832	-912.5	-592.5	0	0	0	0	0	0
2833	-832.5	-512.5	0	0	0	0	0	0
2834	-792.5	-460	0	0	0	0	0	0
2835	-735	-402.5	0	0	0	0	0	0
2836	-682.5	-335	0	0	0	0	0	0
2837	-642.5	-277.5	0	0	0	0	0	0
2838	-592.5	-222.5	0	0	0	0	0	0
2839	-537.5	-152.5	0	0	0	0	0	0
2840	-487.5	-97.5	0	0	0	0	0	0
2841	-440	-40	0	0	0	0	0	0
2842	-387.5	12.5	0	0	0	0	0	0
2843	-327.5	67.5	0	0	0	0	0	0
2844	-272.5	120	0	0	0	0	0	0
2845	-230	165	0	0	0	0	0	0
2846	-190	207.5	0	0	0	0	0	0
2847	-157.5	247.5	0	0	0	0	0	0
2848	-120	287.5	0	0	0	0	0	0
2849	-107.5	315	0	0	0	0	0	0
2850	-102.5	342.5	0	0	0	0	0	0
2851	-90	367.5	0	0	0	0	0	0
2852	-97.5	380	0	0	0	0	0	0
2853	-95	397.5	0	0	0	0	0	0
2854	-95	407.5	0	0	0	0	0	0
2855	-100	415	0	0	0	0	0	0
2856	-77.5	440	0	0	0	0	0	0
2857	-62.5	457.5	0	0	0	0	0	0
2858	-30	475	0	0	0	0	0	0
2859	2.5	485	0	0	0	0	0	0
2860	27.5	485	0	0	0	0	0	0
2861	52.5	495	0	0	0	0	0	0
2862	70	495	0	0	0	0	0	0
2863	90	500	0	0	0	0	0	0
2864	105	505	0	0	0	0	0	0
2865	107.5	490	0	0	0	0	0	0
2866	95	465	0	0	0	0	0	0
2867	62.5	422.5	0	0	0	0	0	0
2868	25	372.5	0	0	0	0	0	0
2869	-7.5	335	0	0	0	0	0	0
2870	-27.5	302.5	0	0	0	0	0	0
2871	-37.5	277.5	0	0	0	0	0	0
2872	-37.5	265	0	0	0	0	0	0
2873	-30	255	0	0	0	0	0	0
2874	-32.5	240	0	0	0	0	0	0
2875	-27.5	242.5	0	0	0	0	0	0
2876	-12.5	245	0	0	0	0	0	0
2877	-5	245	0	0	0	0	0	0
2878	12.5	260	0	0	0	0	0	0
2879	20	265	0	0	0	0	0	0
2880	25	265	0	0	0	0	0	0
2881	22.5	270	0	0	0	0	0	0
2882	10	252.5	0	0	0	0	0	0
2883	0	240	0	0	0	0	0	0
2884	-2.5	235	0	0	0	0	0	0
2885	-10	217.5	0	0	0	0	0	0
2886	-25	202.5	0	0	0	0	0	0
2887	-27.5	187.5	0	0	0	0	0	0
2888	-37.5	175	0	0	0	0	0	0
2889	-47.5	167.5	0	0	0	0	0	0
2890	-37.5	162.5	0	0	0	0	0	0
2891	-45	160	0	0	0	0	0	0
2892	-65	150	0	0	0	0	0	0
2893	-65	147.5	0	0	0	0	0	0
2894	-70	150	0	0	0	0	0	0
2895	-72.5	142.5	0	0	0	0	0	0
2896	-70	145	0	0	0	0	0	0
2897	-82.5	142.5	0	0	0	0	0	0
2898	-95	127.5	0	0	0	0	0	0
2899	-100	122.5	0	0	0	0	0	0
2900	-115	117.5	0	0	0	0	0	0
2901	-122.5	105	0	0	0	0	0	0
2902	-115	110	0	0	0	0	0	0
2903	-110	105	0	0	0	0	0	0
2904	-107.5	92.5	0	0	0	0	0	0
2905	-102.5	92.5	0	0	0	0	0	0
2906	-92.5	90	0	0	0	0	0	0
2907	-97.5	85	0	0	0	0	0	0
2908	-100	90	0	0	0	0	0	0
2909	-105	87.5	0	0	0	0	0	0
2910	-115	90	0	0	0	0	0	0
2911	-110	100	0	0	0	0	0	0
2912	-117.5	110	0	0	0	0	0	0
2913	-107.5	137.5	0	0	0	0	0	0
2914	-90	190	0	0	0	0	0	0
2915	-85	252.5	0	0	0	0	0	0
2916	-57.5	335	0	0	0	0	0	0
2917	-27.5	425	0	0	0	0	0	0
2918	5	517.5	0	0	0	0	0	0
2919	45	610	0	0	0	0	0	0
2920	65	672.5	0	0	0	0	0	0
2921	72.5	705	0	0	0	0	0	0
2922	65	710	0	0	0	0	0	0
2923	37.5	677.5	0	0	0	0	0	0
2924	5	607.5	0	0	0	0	0	0
2925	-27.5	507.5	0	0	0	0	0	0
2926	-62.5	390	0	0	0	0	0	0
2927	-92.5	265	0	0	0	0	0	0
2928	-122.5	137.5	0	0	0	0	0	0
2929	-165	7.5	0	0	0	0	0	0
2930	-200	-90	0	0	0	0	0	0
2931	-220	-165	0	0	0	0	0	0
2932	-245	-227.5	0	0	0	0	0	0
2933	-267.5	-262.5	0	0	0	0	0	0
2934	-272.5	-262.5	0	0	0	0	0	0
2935	-265	-235	0	0	0	0	0	0
2936	-270	-212.5	0	0	0	0	0	0
2937	-262.5	-180	0	0	0	0	0	0
2938	-255	-145	0	0	0	0	0	0
2939	-260	-125	0	0	0	0	0	0
2940	-247.5	-97.5	0	0	0	0	0	0
2941	-255	-85	0	0	0	0	0	0
2942	-250	-65	0	0	0	0	0	0
2943	-250	-50	0	0	0	0	0	0
2944	-267.5	-62.5	0	0	0	0	0	0
2945	-262.5	-55	0	0	0	0	0	0
2946	-272.5	-50	0	0	0	0	0	0
2947	-292.5	-62.5	0	0	0	0	0	0
2948	-300	-65	0	0	0	0	0	0
2949	-307.5	-67.5	0	0	0	0	0	0
2950	-317.5	-77.5	0	0	0	0	0	0
2951	-312.5	-75	0	0	0	0	0	0
2952	-310	-77.5	0	0	0	0	0	0
2953	-300	-70	0	0	0	0	0	0
2954	-295	-65	0	0	0	0	0	0
2955	-325	-87.5	0	0	0	0	0	0
2956	-340	-100	0	0	0	0	0	0
2957	-352.5	-112.5	0	0	0	0	0	0
2958	-370	-125	0	0	0	0	0	0
2959	-380	-130	0	0	0	0	0	0
2960	-385	-140	0	0	0	0	0	0
2961	-395	-142.5	0	0	0	0	0	0
2962	-410	-147.5	0	0	0	0	0	0
2963	-420	-157.5	0	0	0	0	0	0
2964	-432.5	-167.5	0	0	0	0	0	0
2965	-437.5	-180	0	0	0	0	0	0
2966	-437.5	-190	0	0	0	0	0	0
2967	-447.5	-200	0	0	0	0	0	0
2968	-452.5	-207.5	0	0	0	0	0	0
2969	-457.5	-215	0	0	0	0	0	0
2970	-462.5	-215	0	0	0	0	0	0
2971	-470	-222.5	0	0	0	0	0	0
2972	-462.5	-217.5	0	0	0	0	0	0
2973	-442.5	-202.5	0	0	0	0	0	0
2974	-437.5	-200	0	0	0	0	0	0
2975	-422.5	-177.5	0	0	0	0	0	0
2976	-415	-167.5	0	0	0	0	0	0
2977	-407.5	-162.5	0	0	0	0	0	0
2978	-397.5	-157.5	0	0	0	0	0	0
2979	-405	-167.5	0	0	0	0	0	0
2980	-407.5	-170	0	0	0	0	0	0
2981	-412.5	-182.5	0	0	0	0	0	0
2982	-422.5	-197.5	0	0	0	0	0	0
2983	-432.5	-207.5	0	0	0	0	0	0
2984	-450	-222.5	0	0	0	0	0	0
2985	-452.5	-222.5	0	0	0	0	0	0
2986	-460	-227.5	0	0	0	0	0	0
2987	-470	-242.5	0	0	0	0	0	0
2988	-467.5	-240	0	0	0	0	0	0
2989	-472.5	-247.5	0	0	0	0	0	0
2990	-470	-252.5	0	0	0	0	0	0
2991	-472.5	-247.5	0	0	0	0	0	0
2992	-475	-247.5	0	0	0	0	0	0
2993	-472.5	-250	0	0	0	0	0	0
2994	-480	-252.5	0	0	0	0	0	0
2995	-480	-257.5	0	0	0	0	0	0
2996	-477.5	-252.5	0	0	0	0	0	0
2997	-485	-250	0	0	0	0	0	0
2998	-490	-245	0	0	0	0	0	0
2999	-490	-232.5	0	0	0	0	0	0
3000	-485	-222.5	0	0	0	0	0	0
3001	-477.5	-220	0	0	0	0	0	0
3002	-482.5	-225	0	0	0	0	0	0
3003	-485	-230	0	0	0	0	0	0
3004	-490	-240	0	0	0	0	0	0
3005	-505	-252.5	0	0	0	0	0	0
3006	-517.5	-270	0	0	0	0	0	0
3007	-525	-275	0	0	0	0	0	0
3008	-530	-277.5	0	0	0	0	0	0
3009	-540	-290	0	0	0	0	0	0
3010	-542.5	-285	0	0	0	0	0	0
3011	-540	-280	0	0	0	0	0	0
3012	-547.5	-280	0	0	0	0	0	0
3013	-540	-270	0	0	0	0	0	0
3014	-522.5	-257.5	0	0	0	0	0	0
3015	-500	-237.5	0	0	0	0	0	0
3016	-480	-222.5	0	0	0	0	0	0
3017	-470	-215	0	0	0	0	0	0
3018	-455	-207.5	0	0	0	0	0	0
3019	-452.5	-207.5	0	0	0	0	0	0
3020	-457.5	-210	0	0	0	0	0	0
3021	-447.5	-215	0	0	0	0	0	0
3022	-457.5	-225	0	0	0	0	0	0
3023	-462.5	-235	0	0	0	0	0	0
3024	-475	-252.5	0	0	0	0	0	0
3025	-495	-267.5	0	0	0	0	0	0
3026	-492.5	-272.5	0	0	0	0	0	0
3027	-510	-280	0	0	0	0	0	0
3028	-525	-285	0	0	0	0	0	0
3029	-517.5	-282.5	0	0	0	0	0	0
3030	-535	-287.5	0	0	0	0	0	0
3031	-527.5	-275	0	0	0	0	0	0
3032	-500	-245	0	0	0	0	0	0
3033	-492.5	-235	0	0	0	0	0	0
3034	-472.5	-217.5	0	0	0	0	0	0
3035	-457.5	-200	0	0	0	0	0	0
3036	-455	-197.5	0	0	0	0	0	0
3037	-440	-187.5	0	0	0	0	0	0
3038	-427.5	-182.5	0	0	0	0	0	0
3039	-417.5	-182.5	0	0	0	0	0	0
3040	-390	-167.5	0	0	0	0	0	0
3041	-387.5	-170	0	0	0	0	0	0
3042	-402.5	-185	0	0	0	0	0	0
3043	-415	-187.5	0	0	0	0	0	0
3044	-422.5	-190	0	0	0	0	0	0
3045	-435	-195	0	0	0	0	0	0
3046	-450	-197.5	0	0	0	0	0	0
3047	-450	-195	0	0	0	0	0	0
3048	-452.5	-192.5	0	0	0	0	0	0
3049	-467.5	-192.5	0	0	0	0	0	0
3050	-480	-195	0	0	0	0	0	0
3051	-487.5	-197.5	0	0	0	0	0	0
3052	-487.5	-195	0	0	0	0	0	0
3053	-480	-187.5	0	0	0	0	0	0
3054	-477.5	-185	0	0	0	0	0	0
3055	-467.5	-180	0	0	0	0	0	0
3056	-455	-175	0	0	0	0	0	0
3057	-452.5	-175	0	0	0	0	0	0
3058	-445	-170	0	0	0	0	0	0
3059	-430	-157.5	0	0	0	0	0	0
3060	-425	-160	0	0	0	0	0	0
3061	-425	-160	0	0	0	0	0	0
3062	-420	-150	0	0	0	0	0	0
3063	-417.5	-147.5	0	0	0	0	0	0
3064	-425	-152.5	0	0	0	0	0	0
3065	-432.5	-157.5	0	0	0	0	0	0
3066	-452.5	-167.5	0	0	0	0	0	0
3067	-457.5	-182.5	0	0	0	0	0	0
3068	-462.5	-197.5	0	0	0	0	0	0
3069	-472.5	-205	0	0	0	0	0	0
3070	-475	-210	0	0	0	0	0	0
3071	-485	-212.5	0	0	0	0	0	0
3072	-510	-230	0	0	0	0	0	0
3073	-517.5	-237.5	0	0	0	0	0	0
3074	-507.5	-230	0	0	0	0	0	0
3075	-495	-230	0	0	0	0	0	0
3076	-475	-215	0	0	0	0	0	0
3077	-465	-202.5	0	0	0	0	0	0
3078	-455	-192.5	0	0	0	0	0	0
3079	-447.5	-185	0	0	0	0	0	0
3080	-450	-185	0	0	0	0	0	0
3081	-437.5	-172.5	0	0	0	0	0	0
3082	-427.5	-165	0	0	0	0	0	0
3083	-415	-162.5	0	0	0	0	0	0
3084	-417.5	-165	0	0	0	0	0	0
3085	-425	-167.5	0	0	0	0	0	0
3086	-427.5	-170	0	0	0	0	0	0
3087	-440	-182.5	0	0	0	0	0	0
3088	-450	-195	0	0	0	0	0	0
3089	-455	-200	0	0	0	0	0	0
3090	-472.5	-212.5	0	0	0	0	0	0
3091	-480	-222.5	0	0	0	0	0	0
3092	-470	-215	0	0	0	0	0	0
3093	-470	-212.5	0	0	0	0	0	0
3094	-457.5	-205	0	0	0	0	0	0
3095	-445	-195	0	0	0	0	0	0
3096	-432.5	-190	0	0	0	0	0	0
3097	-422.5	-180	0	0	0	0	0	0
3098	-427.5	-177.5	0	0	0	0	0	0
3099	-417.5	-172.5	0	0	0	0	0	0
3100	-410	-162.5	0	0	0	0	0	0
3101	-415	-162.5	0	0	0	0	0	0
3102	-410	-160	0	0	0	0	0	0
3103	-420	-165	0	0	0	0	0	0
3104	-425	-157.5	0	0	0	0	0	0
3105	-427.5	-160	0	0	0	0	0	0
3106	-442.5	-170	0	0	0	0	0	0
3107	-437.5	-157.5	0	0	0	0	0	0
3108	-430	-155	0	0	0	0	0	0
3109	-430	-155	0	0	0	0	0	0
3110	-425	-155	0	0	0	0	0	0
3111	-427.5	-165	0	0	0	0	0	0
3112	-422.5	-160	0	0	0	0	0	0
3113	-402.5	-147.5	0	0	0	0	0	0
3114	-397.5	-147.5	0	0	0	0	0	0
3115	-385	-135	0	0	0	0	0	0
3116	-375	-130	0	0	0	0	0	0
3117	-382.5	-135	0	0	0	0	0	0
3118	-382.5	-127.5	0	0	0	0	0	0
3119	-390	-127.5	0	0	0	0	0	0
3120	-385	-117.5	0	0	0	0	0	0
3121	-367.5	-100	0	0	0	0	0	0
3122	-375	-100	0	0	0	0	0	0
3123	-387.5	-112.5	0	0	0	0	0	0
3124	-387.5	-122.5	0	0	0	0	0	0
3125	-407.5	-132.5	0	0	0	0	0	0
3126	-422.5	-150	0	0	0	0	0	0
3127	-415	-155	0	0	0	0	0	0
3128	-425	-155	0	0	0	0	0	0
3129	-410	-155	0	0	0	0	0	0
3130	-402.5	-152.5	0	0	0	0	0	0
3131	-400	-152.5	0	0	0	0	0	0
3132	-382.5	-145	0	0	0	0	0	0
3133	-385	-142.5	0	0	0	0	0	0
3134	-375	-132.5	0	0	0	0	0	0
3135	-365	-127.5	0	0	0	0	0	0
3136	-360	-115	0	0	0	0	0	0
3137	-352.5	-105	0	0	0	0	0	0
3138	-352.5	-105	0	0	0	0	0	0
3139	-357.5	-100	0	0	0	0	0	0
3140	-360	-92.5	0	0	0	0	0	0
3141	-372.5	-92.5	0	0	0	0	0	0
3142	-390	-102.5	0	0	0	0	0	0
3143	-390	-92.5	0	0	0	0	0	0
3144	-392.5	-87.5	0	0	0	0	0	0
3145	-385	-85	0	0	0	0	0	0
3146	-377.5	-77.5	0	0	0	0	0	0
3147	-367.5	-70	0	0	0	0	0	0
3148	-350	-55	0	0	0	0	0	0
3149	-352.5	-47.5	0	0	0	0	0	0
3150	-342.5	-45	0	0	0	0	0	0
3151	-325	-30	0	0	0	0	0	0
3152	-315	-15	0	0	0	0	0	0
3153	-302.5	-5	0	0	0	0	0	0
3154	-305	2.5	0	0	0	0	0	0
3155	-310	17.5	0	0	0	0	0	0
3156	-310	30	0	0	0	0	0	0
3157	-325	42.5	0	0	0	0	0	0
3158	-327.5	57.5	0	0	0	0	0	0
3159	-317.5	75	0	0	0	0	0	0
3160	-320	92.5	0	0	0	0	0	0
3161	-317.5	107.5	0	0	0	0	0	0
3162	-322.5	117.5	0	0	0	0	0	0
3163	-327.5	125	0	0	0	0	0	0
3164	-317.5	137.5	0	0	0	0	0	0
3165	-320	137.5	0	0	0	0	0	0
3166	-312.5	132.5	0	0	0	0	0	0
3167	-297.5	130	0	0	0	0	0	0
3168	-297.5	122.5	0	0	0	0	0	0
3169	-280	117.5	0	0	0	0	0	0
3170	-265	107.5	0	0	0	0	0	0
3171	-265	90	0	0	0	0	0	0
3172	-252.5	82.5	0	0	0	0	0	0
3173	-252.5	60	0	0	0	0	0	0
3174	-262.5	37.5	0	0	0	0	0	0
3175	-260	22.5	0	0	0	0	0	0
3176	-260	10	0	0	0	0	0	0
3177	-267.5	-5	0	0	0	0	0	0
3178	-282.5	-30	0	0	0	0	0	0
3179	-292.5	-45	0	0	0	0	0	0
3180	-312.5	-62.5	0	0	0	0	0	0
3181	-322.5	-77.5	0	0	0	0	0	0
3182	-327.5	-90	0	0	0	0	0	0
3183	-340	-110	0	0	0	0	0	0
3184	-335	-120	0	0	0	0	0	0
3185	-340	-135	0	0	0	0	0	0
3186	-340	-145	0	0	0	0	0	0
3187	-330	-140	0	0	0	0	0	0
3188	-322.5	-137.5	0	0	0	0	0	0
3189	-320	-137.5	0	0	0	0	0	0
3190	-322.5	-140	0	0	0	0	0	0
3191	-320	-145	0	0	0	0	0	0
3192	-320	-147.5	0	0	0	0	0	0
3193	-302.5	-140	0	0	0	0	0	0
3194	-307.5	-145	0	0	0	0	0	0
3195	-305	-140	0	0	0	0	0	0
3196	-302.5	-137.5	0	0	0	0	0	0
3197	-320	-147.5	0	0	0	0	0	0
3198	-320	-142.5	0	0	0	0	0	0
3199	-325	-140	0	0	0	0	0	0
3200	-330	-145	0	0	0	0	0	0
3201	-325	-140	0	0	0	0	0	0
3202	-330	-137.5	0	0	0	0	0	0
3203	-330	-137.5	0	0	0	0	0	0
3204	-317.5	-125	0	0	0	0	0	0
3205	-310	-115	0	0	0	0	0	0
3206	-300	-110	0	0	0	0	0	0
3207	-297.5	-110	0	0	0	0	0	0
3208	-287.5	-110	0	0	0	0	0	0
3209	-282.5	-115	0	0	0	0	0	0
3210	-277.5	-120	0	0	0	0	0	0
3211	-265	-122.5	0	0	0	0	0	0
3212	-267.5	-137.5	0	0	0	0	0	0
3213	-272.5	-147.5	0	0	0	0	0	0
3214	-287.5	-165	0	0	0	0	0	0
3215	-305	-187.5	0	0	0	0	0	0
3216	-305	-182.5	0	0	0	0	0	0
3217	-305	-170	0	0	0	0	0	0
3218	-292.5	-152.5	0	0	0	0	0	0
3219	-262.5	-112.5	0	0	0	0	0	0
3220	-242.5	-75	0	0	0	0	0	0
3221	-232.5	-32.5	0	0	0	0	0	0
3222	-212.5	27.5	0	0	0	0	0	0
3223	-195	102.5	0	0	0	0	0	0
3224	-157.5	197.5	0	0	0	0	0	0
3225	-122.5	295	0	0	0	0	0	0
3226	-95	382.5	0	0	0	0	0	0
3227	-70	447.5	0	0	0	0	0	0
3228	-75	477.5	0	0	0	0	0	0
3229	-87.5	485	0	0	0	0	0	0
3230	-97.5	477.5	0	0	0	0	0	0
3231	-112.5	455	0	0	0	0	0	0
3232	-125	402.5	0	0	0	0	0	0
3233	-145	322.5	0	0	0	0	0	0
3234	-160	230	0	0	0	0	0	0
3235	-182.5	115	0	0	0	0	0	0
3236	-215	-5	0	0	0	0	0	0
3237	-240	-102.5	0	0	0	0	0	0
3238	-267.5	-180	0	0	0	0	0	0
3239	-282.5	-237.5	0	0	0	0	0	0
3240	-287.5	-280	0	0	0	0	0	0
3241	-282.5	-297.5	0	0	0	0	0	0
3242	-277.5	-302.5	0	0	0	0	0	0
3243	-272.5	-300	0	0	0	0	0	0
3244	-270	-282.5	0	0	0	0	0	0
3245	-272.5	-262.5	0	0	0	0	0	0
3246	-272.5	-240	0	0	0	0	0	0
3247	-262.5	-212.5	0	0	0	0	0	0
3248	-250	-187.5	0	0	0	0	0	0
3249	-242.5	-160	0	0	0	0	0	0
3250	-247.5	-140	0	0	0	0	0	0
3251	-245	-127.5	0	0	0	0	0	0
3252	-245	-112.5	0	0	0	0	0	0
3253	-255	-100	0	0	0	0	0	0
3254	-257.5	-92.5	0	0	0	0	0	0
3255	-257.5	-82.5	0	0	0	0	0	0
3256	-250	-72.5	0	0	0	0	0	0
3257	-260	-77.5	0	0	0	0	0	0
3258	-265	-80	0	0	0	0	0	0
3259	-262.5	-77.5	0	0	0	0	0	0
3260	-272.5	-85	0	0	0	0	0	0
3261	-267.5	-82.5	0	0	0	0	0	0
3262	-267.5	-80	0	0	0	0	0	0
3263	-262.5	-75	0	0	0	0	0	0
3264	-260	-67.5	0	0	0	0	0	0
3265	-257.5	-62.5	0	0	0	0	0	0
3266	-252.5	-60	0	0	0	0	0	0
3267	-252.5	-52.5	0	0	0	0	0	0
3268	-242.5	-42.5	0	0	0	0	0	0
3269	-235	-45	0	0	0	0	0	0
3270	-225	-37.5	0	0	0	0	0	0
3271	-212.5	-30	0	0	0	0	0	0
3272	-205	-35	0	0	0	0	0	0
3273	-200	-32.5	0	0	0	0	0	0
3274	-205	-37.5	0	0	0	0	0	0
3275	-217.5	-47.5	0	0	0	0	0	0
3276	-212.5	-47.5	0	0	0	0	0	0
3277	-207.5	-50	0	0	0	0	0	0
3278	-205	-45	0	0	0	0	0	0
3279	-197.5	-42.5	0	0	0	0	0	0
3280	-207.5	-47.5	0	0	0	0	0	0
3281	-220	-52.5	0	0	0	0	0	0
3282	-240	-67.5	0	0	0	0	0	0
3283	-250	-72.5	0	0	0	0	0	0
3284	-245	-72.5	0	0	0	0	0	0
3285	-245	-72.5	0	0	0	0	0	0
3286	-230	-57.5	0	0	0	0	0	0
3287	-225	-52.5	0	0	0	0	0	0
3288	-225	-52.5	0	0	0	0	0	0
3289	-217.5	-42.5	0	0	0	0	0	0
3290	-210	-35	0	0	0	0	0	0
3291	-185	-20	0	0	0	0	0	0
3292	-165	-2.5	0	0	0	0	0	0
3293	-162.5	2.5	0	0	0	0	0	0
3294	-155	12.5	0	0	0	0	0	0
3295	-162.5	15	0	0	0	0	0	0
3296	-170	12.5	0	0	0	0	0	0
3297	-172.5	15	0	0	0	0	0	0
3298	-182.5	12.5	0	0	0	0	0	0
3299	-172.5	20	0	0	0	0	0	0
3300	-175	22.5	0	0	0	0	0	0
3301	-195	15	0	0	0	0	0	0
3302	-195	17.5	0	0	0	0	0	0
3303	-197.5	17.5	0	0	0	0	0	0
3304	-192.5	20	0	0	0	0	0	0
3305	-185	27.5	0	0	0	0	0	0
3306	-182.5	27.5	0	0	0	0	0	0
3307	-175	35	0	0	0	0	0	0
3308	-170	40	0	0	0	0	0	0
3309	-175	42.5	0	0	0	0	0	0
3310	-177.5	47.5	0	0	0	0	0	0
3311	-172.5	55	0	0	0	0	0	0
3312	-172.5	55	0	0	0	0	0	0
3313	-170	57.5	0	0	0	0	0	0
3314	-170	60	0	0	0	0	0	0
3315	-172.5	55	0	0	0	0	0	0
3316	-170	57.5	0	0	0	0	0	0
3317	-187.5	50	0	0	0	0	0	0
3318	-197.5	40	0	0	0	0	0	0
3319	-195	35	0	0	0	0	0	0
3320	-192.5	32.5	0	0	0	0	0	0
3321	-180	42.5	0	0	0	0	0	0
3322	-172.5	50	0	0	0	0	0	0
3323	-160	62.5	0	0	0	0	0	0
3324	-140	77.5	0	0	0	0	0	0
3325	-132.5	90	0	0	0	0	0	0
3326	-122.5	100	0	0	0	0	0	0
3327	-112.5	102.5	0	0	0	0	0	0
3328	-105	112.5	0	0	0	0	0	0
3329	-102.5	115	0	0	0	0	0	0
3330	-110	105	0	0	0	0	0	0
3331	-122.5	95	0	0	0	0	0	0
3332	-125	90	0	0	0	0	0	0
3333	-135	80	0	0	0	0	0	0
3334	-147.5	67.5	0	0	0	0	0	0
3335	-150	57.5	0	0	0	0	0	0
3336	-160	45	0	0	0	0	0	0
3337	-167.5	40	0	0	0	0	0	0
3338	-172.5	37.5	0	0	0	0	0	0
3339	-170	47.5	0	0	0	0	0	0
3340	-162.5	60	0	0	0	0	0	0
3341	-162.5	65	0	0	0	0	0	0
3342	-152.5	70	0	0	0	0	0	0
3343	-155	75	0	0	0	0	0	0
3344	-145	87.5	0	0	0	0	0	0
3345	-140	95	0	0	0	0	0	0
3346	-140	102.5	0	0	0	0	0	0
3347	-117.5	125	0	0	0	0	0	0
3348	-117.5	127.5	0	0	0	0	0	0
3349	-125	117.5	0	0	0	0	0	0
3350	-125	107.5	0	0	0	0	0	0
3351	-132.5	107.5	0	0	0	0	0	0
3352	-127.5	115	0	0	0	0	0	0
3353	-135	110	0	0	0	0	0	0
3354	-132.5	112.5	0	0	0	0	0	0
3355	-132.5	120	0	0	0	0	0	0
3356	-137.5	115	0	0	0	0	0	0
3357	-140	115	0	0	0	0	0	0
3358	-137.5	117.5	0	0	0	0	0	0
3359	-122.5	127.5	0	0	0	0	0	0
3360	-117.5	140	0	0	0	0	0	0
3361	-110	147.5	0	0	0	0	0	0
3362	-110	142.5	0	0	0	0	0	0
3363	-115	135	0	0	0	0	0	0
3364	-110	140	0	0	0	0	0	0
3365	-117.5	135	0	0	0	0	0	0
3366	-125	127.5	0	0	0	0	0	0
3367	-122.5	125	0	0	0	0	0	0
3368	-140	117.5	0	0	0	0	0	0
3369	-152.5	110	0	0	0	0	0	0
3370	-152.5	110	0	0	0	0	0	0
3371	-162.5	107.5	0	0	0	0	0	0
3372	-165	110	0	0	0	0	0	0
3373	-155	122.5	0	0	0	0	0	0
3374	-170	117.5	0	0	0	0	0	0
3375	-172.5	122.5	0	0	0	0	0	0
3376	-175	127.5	0	0	0	0	0	0
3377	-190	120	0	0	0	0	0	0
3378	-175	125	0	0	0	0	0	0
3379	-172.5	117.5	0	0	0	0	0	0
3380	-190	97.5	0	0	0	0	0	0
3381	-197.5	87.5	0	0	0	0	0	0
3382	-202.5	77.5	0	0	0	0	0	0
3383	-202.5	70	0	0	0	0	0	0
3384	-200	72.5	0	0	0	0	0	0
3385	-197.5	72.5	0	0	0	0	0	0
3386	-197.5	70	0	0	0	0	0	0
3387	-197.5	75	0	0	0	0	0	0
3388	-207.5	67.5	0	0	0	0	0	0
3389	-215	72.5	0	0	0	0	0	0
3390	-195	97.5	0	0	0	0	0	0
3391	-177.5	112.5	0	0	0	0	0	0
3392	-175	120	0	0	0	0	0	0
3393	-172.5	125	0	0	0	0	0	0
3394	-170	120	0	0	0	0	0	0
3395	-170	115	0	0	0	0	0	0
3396	-170	112.5	0	0	0	0	0	0
3397	-177.5	105	0	0	0	0	0	0
3398	-177.5	102.5	0	0	0	0	0	0
3399	-182.5	100	0	0	0	0	0	0
3400	-195	82.5	0	0	0	0	0	0
3401	-200	72.5	0	0	0	0	0	0
3402	-192.5	75	0	0	0	0	0	0
3403	-187.5	75	0	0	0	0	0	0
3404	-187.5	70	0	0	0	0	0	0
3405	-190	67.5	0	0	0	0	0	0
3406	-185	67.5	0	0	0	0	0	0
3407	-177.5	72.5	0	0	0	0	0	0
3408	-177.5	72.5	0	0	0	0	0	0
3409	-180	70	0	0	0	0	0	0
3410	-180	72.5	0	0	0	0	0	0
3411	-182.5	70	0	0	0	0	0	0
3412	-197.5	62.5	0	0	0	0	0	0
3413	-210	57.5	0	0	0	0	0	0
3414	-210	57.5	0	0	0	0	0	0
3415	-212.5	62.5	0	0	0	0	0	0
3416	-220	57.5	0	0	0	0	0	0
3417	-217.5	60	0	0	0	0	0	0
3418	-207.5	75	0	0	0	0	0	0
3419	-202.5	85	0	0	0	0	0	0
3420	-197.5	95	0	0	0	0	0	0
3421	-192.5	107.5	0	0	0	0	0	0
3422	-190	112.5	0	0	0	0	0	0
3423	-185	112.5	0	0	0	0	0	0
3424	-185	115	0	0	0	0	0	0
3425	-185	112.5	0	0	0	0	0	0
3426	-177.5	120	0	0	0	0	0	0
3427	-175	132.5	0	0	0	0	0	0
3428	-175	127.5	0	0	0	0	0	0
3429	-167.5	125	0	0	0	0	0	0
3430	-162.5	120	0	0	0	0	0	0
3431	-165	117.5	0	0	0	0	0	0
3432	-157.5	112.5	0	0	0	0	0	0
3433	-155	120	0	0	0	0	0	0
3434	-160	120	0	0	0	0	0	0
3435	-167.5	115	0	0	0	0	0	0
3436	-162.5	120	0	0	0	0	0	0
3437	-160	112.5	0	0	0	0	0	0
3438	-162.5	110	0	0	0	0	0	0
3439	-160	110	0	0	0	0	0	0
3440	-167.5	105	0	0	0	0	0	0
3441	-172.5	105	0	0	0	0	0	0
3442	-177.5	105	0	0	0	0	0	0
3443	-182.5	100	0	0	0	0	0	0
3444	-177.5	97.5	0	0	0	0	0	0
3445	-172.5	105	0	0	0	0	0	0
3446	-165	112.5	0	0	0	0	0	0
3447	-152.5	127.5	0	0	0	0	0	0
3448	-150	140	0	0	0	0	0	0
3449	-142.5	152.5	0	0	0	0	0	0
3450	-145	160	0	0	0	0	0	0
3451	-157.5	157.5	0	0	0	0	0	0
3452	-155	162.5	0	0	0	0	0	0
3453	-165	167.5	0	0	0	0	0	0
3454	-165	185	0	0	0	0	0	0
3455	-160	200	0	0	0	0	0	0
3456	-167.5	217.5	0	0	0	0	0	0
3457	-167.5	232.5	0	0	0	0	0	0
3458	-170	247.5	0	0	0	0	0	0
3459	-170	270	0	0	0	0	0	0
3460	-162.5	282.5	0	0	0	0	0	0
3461	-137.5	315	0	0	0	0	0	0
3462	-117.5	342.5	0	0	0	0	0	0
3463	-105	360	0	0	0	0	0	0
3464	-92.5	377.5	0	0	0	0	0	0
3465	-95	377.5	0	0	0	0	0	0
3466	-95	370	0	0	0	0	0	0
3467	-90	355	0	0	0	0	0	0
3468	-87.5	342.5	0	0	0	0	0	0
3469	-82.5	332.5	0	0	0	0	0	0
3470	-75	317.5	0	0	0	0	0	0
3471	-82.5	295	0	0	0	0	0	0
3472	-100	270	0	0	0	0	0	0
3473	-110	245	0	0	0	0	0	0
3474	-132.5	215	0	0	0	0	0	0
3475	-130	200	0	0	0	0	0	0
3476	-145	180	0	0	0	0	0	0
3477	-162.5	162.5	0	0	0	0	0	0
3478	-157.5	152.5	0	0	0	0	0	0
3479	-172.5	135	0	0	0	0	0	0
3480	-180	122.5	0	0	0	0	0	0
3481	-182.5	110	0	0	0	0	0	0
3482	-180	102.5	0	0	0	0	0	0
3483	-167.5	95	0	0	0	0	0	0
3484	-165	82.5	0	0	0	0	0	0
3485	-155	85	0	0	0	0	0	0
3486	-132.5	80	0	0	0	0	0	0
3487	-122.5	80	0	0	0	0	0	0
3488	-132.5	65	0	0	0	0	0	0
3489	-137.5	57.5	0	0	0	0	0	0
3490	-145	62.5	0	0	0	0	0	0
3491	-165	55	0	0	0	0	0	0
3492	-165	55	0	0	0	0	0	0
3493	-170	55	0	0	0	0	0	0
3494	-177.5	47.5	0	0	0	0	0	0
3495	-180	37.5	0	0	0	0	0	0
3496	-197.5	20	0	0	0	0	0	0
3497	-207.5	15	0	0	0	0	0	0
3498	-207.5	10	0	0	0	0	0	0
3499	-200	7.5	0	0	0	0	0	0
3500	-185	12.5	0	0	0	0	0	0
3501	-175	7.5	0	0	0	0	0	0
3502	-167.5	7.5	0	0	0	0	0	0
3503	-147.5	15	0	0	0	0	0	0
3504	-147.5	15	0	0	0	0	0	0
3505	-155	15	0	0	0	0	0	0
3506	-157.5	22.5	0	0	0	0	0	0
3507	-162.5	17.5	0	0	0	0	0	0
3508	-167.5	15	0	0	0	0	0	0
3509	-177.5	20	0	0	0	0	0	0
3510	-180	10	0	0	0	0	0	0
3511	-182.5	15	0	0	0	0	0	0
3512	-190	10	0	0	0	0	0	0
3513	-195	0	0	0	0	0	0	0
3514	-195	0	0	0	0	0	0	0
3515	-190	-10	0	0	0	0	0	0
3516	-185	-7.5	0	0	0	0	0	0
3517	-175	2.5	0	0	0	0	0	0
3518	-165	10	0	0	0	0	0	0
3519	-155	22.5	0	0	0	0	0	0
3520	-150	32.5	0	0	0	0	0	0
3521	-145	47.5	0	0	0	0	0	0
3522	-127.5	80	0	0	0	0	0	0
3523	-117.5	127.5	0	0	0	0	0	0
3524	-95	192.5	0	0	0	0	0	0
3525	-72.5	275	0	0	0	0	0	0
3526	-62.5	357.5	0	0	0	0	0	0
3527	-40	437.5	0	0	0	0	0	0
3528	-20	507.5	0	0	0	0	0	0
3529	-15	552.5	0	0	0	0	0	0
3530	-7.5	582.5	0	0	0	0	0	0
3531	-20	585	0	0	0	0	0	0
3532	-40	562.5	0	0	0	0	0	0
3533	-67.5	515	0	0	0	0	0	0
3534	-87.5	442.5	0	0	0	0	0	0
3535	-97.5	350	0	0	0	0	0	0
3536	-112.5	242.5	0	0	0	0	0	0
3537	-130	132.5	0	0	0	0	0	0
3538	-145	35	0	0	0	0	0	0
3539	-160	-42.5	0	0	0	0	0	0
3540	-177.5	-102.5	0	0	0	0	0	0
3541	-177.5	-135	0	0	0	0	0	0
3542	-177.5	-162.5	0	0	0	0	0	0
3543	-180	-180	0	0	0	0	0	0
3544	-170	-170	0	0	0	0	0	0
3545	-177.5	-150	0	0	0	0	0	0
3546	-185	-130	0	0	0	0	0	0
3547	-177.5	-97.5	0	0	0	0	0	0
3548	-182.5	-67.5	0	0	0	0	0	0
3549	-175	-37.5	0	0	0	0	0	0
3550	-160	-10	0	0	0	0	0	0
3551	-157.5	12.5	0	0	0	0	0	0
3552	-132.5	45	0	0	0	0	0	0
3553	-120	65	0	0	0	0	0	0
3554	-120	80	0	0	0	0	0	0
3555	-117.5	87.5	0	0	0	0	0	0
3556	-115	92.5	0	0	0	0	0	0
3557	-117.5	95	0	0	0	0	0	0
3558	-130	82.5	0	0	0	0	0	0
3559	-145	72.5	0	0	0	0	0	0
3560	-152.5	62.5	0	0	0	0	0	0
3561	-152.5	55	0	0	0	0	0	0
3562	-165	47.5	0	0	0	0	0	0
3563	-167.5	52.5	0	0	0	0	0	0
3564	-167.5	50	0	0	0	0	0	0
3565	-172.5	45	0	0	0	0	0	0
3566	-167.5	50	0	0	0	0	0	0
3567	-177.5	37.5	0	0	0	0	0	0
3568	-170	37.5	0	0	0	0	0	0
3569	-147.5	47.5	0	0	0	0	0	0
3570	-155	45	0	0	0	0	0	0
3571	-162.5	42.5	0	0	0	0	0	0
3572	-167.5	45	0	0	0	0	0	0
3573	-175	40	0	0	0	0	0	0
3574	-175	40	0	0	0	0	0	0
3575	-177.5	40	0	0	0	0	0	0
3576	-172.5	40	0	0	0	0	0	0
3577	-165	47.5	0	0	0	0	0	0
3578	-175	45	0	0	0	0	0	0
3579	-172.5	47.5	0	0	0	0	0	0
3580	-167.5	55	0	0	0	0	0	0
3581	-162.5	60	0	0	0	0	0	0
3582	-170	55	0	0	0	0	0	0
3583	-192.5	40	0	0	0	0	0	0
3584	-200	37.5	0	0	0	0	0	0
3585	-202.5	37.5	0	0	0	0	0	0
3586	-205	32.5	0	0	0	0	0	0
3587	-192.5	50	0	0	0	0	0	0
3588	-195	47.5	0	0	0	0	0	0
3589	-197.5	42.5	0	0	0	0	0	0
3590	-182.5	50	0	0	0	0	0	0
3591	-177.5	45	0	0	0	0	0	0
3592	-152.5	62.5	0	0	0	0	0	0
3593	-122.5	87.5	0	0	0	0	0	0
3594	-120	90	0	0	0	0	0	0
3595	-117.5	100	0	0	0	0	0	0
3596	-117.5	105	0	0	0	0	0	0
3597	-132.5	95	0	0	0	0	0	0
3598	-132.5	102.5	0	0	0	0	0	0
3599	-132.5	105	0	0	0	0	0	0
3600	-157.5	95	0	0	0	0	0	0
3601	-175	90	0	0	0	0	0	0
3602	-187.5	75	0	0	0	0	0	0
3603	-190	72.5	0	0	0	0	0	0
3604	-172.5	80	0	0	0	0	0	0
3605	-172.5	75	0	0	0	0	0	0
3606	-162.5	82.5	0	0	0	0	0	0
3607	-155	82.5	0	0	0	0	0	0
3608	-162.5	80	0	0	0	0	0	0
3609	-157.5	90	0	0	0	0	0	0
3610	-157.5	87.5	0	0	0	0	0	0
3611	-145	100	0	0	0	0	0	0
3612	-132.5	117.5	0	0	0	0	0	0
3613	-145	110	0	0	0	0	0	0
3614	-140	112.5	0	0	0	0	0	0
3615	-147.5	105	0	0	0	0	0	0
3616	-187.5	77.5	0	0	0	0	0	0
3617	-190	70	0	0	0	0	0	0
3618	-190	65	0	0	0	0	0	0
3619	-197.5	57.5	0	0	0	0	0	0
3620	-177.5	75	0	0	0	0	0	0
3621	-175	80	0	0	0	0	0	0
3622	-160	87.5	0	0	0	0	0	0
3623	-150	102.5	0	0	0	0	0	0
3624	-160	95	0	0	0	0	0	0
3625	-137.5	105	0	0	0	0	0	0
3626	-117.5	117.5	0	0	0	0	0	0
3627	-112.5	120	0	0	0	0	0	0
3628	-112.5	120	0	0	0	0	0	0
3629	-110	115	0	0	0	0	0	0
3630	-97.5	122.5	0	0	0	0	0	0
3631	-102.5	112.5	0	0	0	0	0	0
3632	-110	100	0	0	0	0	0	0
3633	-107.5	95	0	0	0	0	0	0
3634	-112.5	85	0	0	0	0	0	0
3635	-105	87.5	0	0	0	0	0	0
3636	-92.5	92.5	0	0	0	0	0	0
3637	-95	92.5	0	0	0	0	0	0
3638	-85	100	0	0	0	0	0	0
3639	-87.5	95	0	0	0	0	0	0
3640	-112.5	72.5	0	0	0	0	0	0
3641	-125	57.5	0	0	0	0	0	0
3642	-137.5	47.5	0	0	0	0	0	0
3643	-137.5	47.5	0	0	0	0	0	0
3644	-127.5	57.5	0	0	0	0	0	0
3645	-137.5	62.5	0	0	0	0	0	0
3646	-147.5	62.5	0	0	0	0	0	0
3647	-135	75	0	0	0	0	0	0
3648	-130	85	0	0	0	0	0	0
3649	-137.5	82.5	0	0	0	0	0	0
3650	-130	92.5	0	0	0	0	0	0
3651	-135	97.5	0	0	0	0	0	0
3652	-145	90	0	0	0	0	0	0
3653	-152.5	90	0	0	0	0	0	0
3654	-170	80	0	0	0	0	0	0
3655	-165	75	0	0	0	0	0	0
3656	-155	75	0	0	0	0	0	0
3657	-172.5	60	0	0	0	0	0	0
3658	-177.5	42.5	0	0	0	0	0	0
3659	-170	47.5	0	0	0	0	0	0
3660	-170	45	0	0	0	0	0	0
3661	-147.5	50	0	0	0	0	0	0
3662	-135	67.5	0	0	0	0	0	0
3663	-132.5	70	0	0	0	0	0	0
3664	-120	75	0	0	0	0	0	0
3665	-137.5	70	0	0	0	0	0	0
3666	-142.5	62.5	0	0	0	0	0	0
3667	-132.5	75	0	0	0	0	0	0
3668	-125	75	0	0	0	0	0	0
3669	-127.5	62.5	0	0	0	0	0	0
3670	-130	50	0	0	0	0	0	0
3671	-142.5	37.5	0	0	0	0	0	0
3672	-150	22.5	0	0	0	0	0	0
3673	-165	2.5	0	0	0	0	0	0
3674	-180	-12.5	0	0	0	0	0	0
3675	-175	-17.5	0	0	0	0	0	0
3676	-190	-32.5	0	0	0	0	0	0
3677	-212.5	-52.5	0	0	0	0	0	0
3678	-217.5	-55	0	0	0	0	0	0
3679	-222.5	-47.5	0	0	0	0	0	0
3680	-230	-47.5	0	0	0	0	0	0
3681	-207.5	-27.5	0	0	0	0	0	0
3682	-200	-17.5	0	0	0	0	0	0
3683	-200	-30	0	0	0	0	0	0
3684	-190	-20	0	0	0	0	0	0
3685	-212.5	-32.5	0	0	0	0	0	0
3686	-220	-47.5	0	0	0	0	0	0
3687	-220	-47.5	0	0	0	0	0	0
3688	-232.5	-52.5	0	0	0	0	0	0
3689	-222.5	-50	0	0	0	0	0	0
3690	-227.5	-55	0	0	0	0	0	0
3691	-240	-72.5	0	0	0	0	0	0
3692	-245	-82.5	0	0	0	0	0	0
3693	-247.5	-85	0	0	0	0	0	0
3694	-247.5	-100	0	0	0	0	0	0
3695	-245	-115	0	0	0	0	0	0
3696	-250	-127.5	0	0	0	0	0	0
3697	-242.5	-142.5	0	0	0	0	0	0
3698	-230	-150	0	0	0	0	0	0
3699	-235	-167.5	0	0	0	0	0	0
3700	-230	-172.5	0	0	0	0	0	0
3701	-235	-182.5	0	0	0	0	0	0
3702	-237.5	-192.5	0	0	0	0	0	0
3703	-232.5	-190	0	0	0	0	0	0
3704	-235	-200	0	0	0	0	0	0
3705	-217.5	-190	0	0	0	0	0	0
3706	-197.5	-172.5	0	0	0	0	0	0
3707	-192.5	-165	0	0	0	0	0	0
3708	-205	-162.5	0	0	0	0	0	0
3709	-207.5	-162.5	0	0	0	0	0	0
3710	-210	-165	0	0	0	0	0	0
3711	-225	-170	0	0	0	0	0	0
3712	-230	-177.5	0	0	0	0	0	0
3713	-242.5	-187.5	0	0	0	0	0	0
3714	-240	-190	0	0	0	0	0	0
3715	-245	-190	0	0	0	0	0	0
3716	-252.5	-197.5	0	0	0	0	0	0
3717	-252.5	-210	0	0	0	0	0	0
3718	-260	-225	0	0	0	0	0	0
3719	-262.5	-237.5	0	0	0	0	0	0
3720	-265	-245	0	0	0	0	0	0
3721	-272.5	-252.5	0	0	0	0	0	0
3722	-262.5	-247.5	0	0	0	0	0	0
3723	-260	-245	0	0	0	0	0	0
3724	-262.5	-237.5	0	0	0	0	0	0
3725	-260	-232.5	0	0	0	0	0	0
3726	-265	-230	0	0	0	0	0	0
3727	-257.5	-222.5	0	0	0	0	0	0
3728	-255	-225	0	0	0	0	0	0
3729	-257.5	-230	0	0	0	0	0	0
3730	-267.5	-240	0	0	0	0	0	0
3731	-277.5	-255	0	0	0	0	0	0
3732	-270	-255	0	0	0	0	0	0
3733	-260	-255	0	0	0	0	0	0
3734	-257.5	-260	0	0	0	0	0	0
3735	-255	-265	0	0	0	0	0	0
3736	-262.5	-265	0	0	0	0	0	0
3737	-262.5	-262.5	0	0	0	0	0	0
3738	-262.5	-257.5	0	0	0	0	0	0
3739	-260	-247.5	0	0	0	0	0	0
3740	-232.5	-227.5	0	0	0	0	0	0
3741	-220	-220	0	0	0	0	0	0
3742	-230	-220	0	0	0	0	0	0
3743	-242.5	-230	0	0	0	0	0	0
3744	-257.5	-240	0	0	0	0	0	0
3745	-255	-235	0	0	0	0	0	0
3746	-257.5	-237.5	0	0	0	0	0	0
3747	-272.5	-247.5	0	0	0	0	0	0
3748	-275	-247.5	0	0	0	0	0	0
3749	-270	-240	0	0	0	0	0	0
3750	-290	-245	0	0	0	0	0	0
3751	-290	-235	0	0	0	0	0	0
3752	-285	-227.5	0	0	0	0	0	0
3753	-290	-232.5	0	0	0	0	0	0
3754	-270	-220	0	0	0	0	0	0
3755	-270	-217.5	0	0	0	0	0	0
3756	-267.5	-222.5	0	0	0	0	0	0
3757	-250	-210	0	0	0	0	0	0
3758	-255	-207.5	0	0	0	0	0	0
3759	-252.5	-205	0	0	0	0	0	0
3760	-242.5	-192.5	0	0	0	0	0	0
3761	-260	-202.5	0	0	0	0	0	0
3762	-270	-195	0	0	0	0	0	0
3763	-272.5	-177.5	0	0	0	0	0	0
3764	-280	-175	0	0	0	0	0	0
3765	-287.5	-160	0	0	0	0	0	0
3766	-285	-140	0	0	0	0	0	0
3767	-280	-127.5	0	0	0	0	0	0
3768	-282.5	-117.5	0	0	0	0	0	0
3769	-277.5	-105	0	0	0	0	0	0
3770	-255	-85	0	0	0	0	0	0
3771	-225	-60	0	0	0	0	0	0
3772	-207.5	-50	0	0	0	0	0	0
3773	-177.5	-35	0	0	0	0	0	0
3774	-172.5	-35	0	0	0	0	0	0
3775	-165	-42.5	0	0	0	0	0	0
3776	-162.5	-55	0	0	0	0	0	0
3777	-177.5	-80	0	0	0	0	0	0
3778	-170	-95	0	0	0	0	0	0
3779	-187.5	-130	0	0	0	0	0	0
3780	-210	-167.5	0	0	0	0	0	0
3781	-227.5	-202.5	0	0	0	0	0	0
3782	-250	-235	0	0	0	0	0	0
3783	-262.5	-267.5	0	0	0	0	0	0
3784	-275	-295	0	0	0	0	0	0
3785	-287.5	-322.5	0	0	0	0	0	0
3786	-297.5	-345	0	0	0	0	0	0
3787	-300	-355	0	0	0	0	0	0
3788	-290	-360	0	0	0	0	0	0
3789	-290	-365	0	0	0	0	0	0
3790	-290	-370	0	0	0	0	0	0
3791	-277.5	-370	0	0	0	0	0	0
3792	-285	-377.5	0	0	0	0	0	0
3793	-297.5	-395	0	0	0	0	0	0
3794	-312.5	-410	0	0	0	0	0	0
3795	-310	-415	0	0	0	0	0	0
3796	-297.5	-407.5	0	0	0	0	0	0
3797	-297.5	-410	0	0	0	0	0	0
3798	-290	-410	0	0	0	0	0	0
3799	-280	-400	0	0	0	0	0	0
3800	-287.5	-402.5	0	0	0	0	0	0
3801	-295	-402.5	0	0	0	0	0	0
3802	-290	-395	0	0	0	0	0	0
3803	-280	-382.5	0	0	0	0	0	0
3804	-270	-370	0	0	0	0	0	0
3805	-270	-365	0	0	0	0	0	0
3806	-277.5	-370	0	0	0	0	0	0
3807	-275	-375	0	0	0	0	0	0
3808	-282.5	-387.5	0	0	0	0	0	0
3809	-295	-407.5	0	0	0	0	0	0
3810	-285	-417.5	0	0	0	0	0	0
3811	-272.5	-417.5	0	0	0	0	0	0
3812	-275	-420	0	0	0	0	0	0
3813	-277.5	-417.5	0	0	0	0	0	0
3814	-272.5	-412.5	0	0	0	0	0	0
3815	-280	-420	0	0	0	0	0	0
3816	-280	-417.5	0	0	0	0	0	0
3817	-275	-425	0	0	0	0	0	0
3818	-275	-432.5	0	0	0	0	0	0
3819	-252.5	-422.5	0	0	0	0	0	0
3820	-265	-427.5	0	0	0	0	0	0
3821	-285	-432.5	0	0	0	0	0	0
3822	-280	-430	0	0	0	0	0	0
3823	-292.5	-442.5	0	0	0	0	0	0
3824	-282.5	-432.5	0	0	0	0	0	0
3825	-272.5	-425	0	0	0	0	0	0
3826	-277.5	-405	0	0	0	0	0	0
3827	-247.5	-355	0	0	0	0	0	0
3828	-230	-290	0	0	0	0	0	0
3829	-222.5	-217.5	0	0	0	0	0	0
3830	-185	-125	0	0	0	0	0	0
3831	-145	-17.5	0	0	0	0	0	0
3832	-102.5	87.5	0	0	0	0	0	0
3833	-67.5	190	0	0	0	0	0	0
3834	-55	260	0	0	0	0	0	0
3835	-40	300	0	0	0	0	0	0
3836	-35	312.5	0	0	0	0	0	0
3837	-57.5	285	0	0	0	0	0	0
3838	-77.5	232.5	0	0	0	0	0	0
3839	-107.5	145	0	0	0	0	0	0
3840	-132.5	30	0	0	0	0	0	0
3841	-160	-100	0	0	0	0	0	0
3842	-200	-245	0	0	0	0	0	0
3843	-225	-385	0	0	0	0	0	0
3844	-235	-482.5	0	0	0	0	0	0
3845	-247.5	-547.5	0	0	0	0	0	0
3846	-245	-590	0	0	0	0	0	0
3847	-245	-607.5	0	0	0	0	0	0
3848	-252.5	-620	0	0	0	0	0	0
3849	-250	-610	0	0	0	0	0	0
3850	-260	-580	0	0	0	0	0	0
3851	-265	-547.5	0	0	0	0	0	0
3852	-255	-505	0	0	0	0	0	0
3853	-250	-460	0	0	0	0	0	0
3854	-255	-437.5	0	0	0	0	0	0
3855	-252.5	-415	0	0	0	0	0	0
3856	-257.5	-407.5	0	0	0	0	0	0
3857	-282.5	-417.5	0	0	0	0	0	0
3858	-292.5	-415	0	0	0	0	0	0
3859	-290	-410	0	0	0	0	0	0
3860	-292.5	-410	0	0	0	0	0	0
3861	-290	-405	0	0	0	0	0	0
3862	-287.5	-402.5	0	0	0	0	0	0
3863	-295	-412.5	0	0	0	0	0	0
3864	-297.5	-415	0	0	0	0	0	0
3865	-305	-425	0	0	0	0	0	0
3866	-315	-427.5	0	0	0	0	0	0
3867	-302.5	-415	0	0	0	0	0	0
3868	-300	-410	0	0	0	0	0	0
3869	-300	-400	0	0	0	0	0	0
3870	-290	-397.5	0	0	0	0	0	0
3871	-302.5	-415	0	0	0	0	0	0
3872	-315	-420	0	0	0	0	0	0
3873	-312.5	-425	0	0	0	0	0	0
3874	-312.5	-420	0	0	0	0	0	0
3875	-310	-412.5	0	0	0	0	0	0
3876	-312.5	-407.5	0	0	0	0	0	0
3877	-297.5	-397.5	0	0	0	0	0	0
3878	-285	-395	0	0	0	0	0	0
3879	-285	-395	0	0	0	0	0	0
3880	-272.5	-387.5	0	0	0	0	0	0
3881	-272.5	-382.5	0	0	0	0	0	0
3882	-270	-372.5	0	0	0	0	0	0
3883	-275	-370	0	0	0	0	0	0
3884	-295	-382.5	0	0	0	0	0	0
3885	-280	-377.5	0	0	0	0	0	0
3886	-287.5	-382.5	0	0	0	0	0	0
3887	-297.5	-390	0	0	0	0	0	0
3888	-285	-382.5	0	0	0	0	0	0
3889	-297.5	-387.5	0	0	0	0	0	0
3890	-297.5	-382.5	0	0	0	0	0	0
3891	-285	-377.5	0	0	0	0	0	0
3892	-270	-375	0	0	0	0	0	0
3893	-262.5	-370	0	0	0	0	0	0
3894	-255	-360	0	0	0	0	0	0
3895	-240	-347.5	0	0	0	0	0	0
3896	-235	-347.5	0	0	0	0	0	0
3897	-227.5	-345	0	0	0	0	0	0
3898	-230	-345	0	0	0	0	0	0
3899	-230	-347.5	0	0	0	0	0	0
3900	-222.5	-347.5	0	0	0	0	0	0
3901	-245	-352.5	0	0	0	0	0	0
3902	-255	-357.5	0	0	0	0	0	0
3903	-245	-355	0	0	0	0	0	0
3904	-252.5	-355	0	0	0	0	0	0
3905	-257.5	-357.5	0	0	0	0	0	0
3906	-250	-342.5	0	0	0	0	0	0
3907	-250	-327.5	0	0	0	0	0	0
3908	-252.5	-325	0	0	0	0	0	0
3909	-252.5	-317.5	0	0	0	0	0	0
3910	-260	-317.5	0	0	0	0	0	0
3911	-255	-317.5	0	0	0	0	0	0
3912	-250	-307.5	0	0	0	0	0	0
3913	-257.5	-300	0	0	0	0	0	0
3914	-257.5	-300	0	0	0	0	0	0
3915	-257.5	-302.5	0	0	0	0	0	0
3916	-262.5	-300	0	0	0	0	0	0
3917	-270	-310	0	0	0	0	0	0
3918	-270	-307.5	0	0	0	0	0	0
3919	-265	-302.5	0	0	0	0	0	0
3920	-275	-305	0	0	0	0	0	0
3921	-267.5	-292.5	0	0	0	0	0	0
3922	-267.5	-290	0	0	0	0	0	0
3923	-267.5	-292.5	0	0	0	0	0	0
3924	-255	-285	0	0	0	0	0	0
3925	-265	-287.5	0	0	0	0	0	0
3926	-267.5	-292.5	0	0	0	0	0	0
3927	-262.5	-290	0	0	0	0	0	0
3928	-270	-287.5	0	0	0	0	0	0
3929	-267.5	-292.5	0	0	0	0	0	0
3930	-250	-282.5	0	0	0	0	0	0
3931	-235	-272.5	0	0	0	0	0	0
3932	-227.5	-275	0	0	0	0	0	0
3933	-225	-267.5	0	0	0	0	0	0
3934	-222.5	-265	0	0	0	0	0	0
3935	-227.5	-265	0	0	0	0	0	0
3936	-222.5	-262.5	0	0	0	0	0	0
3937	-227.5	-270	0	0	0	0	0	0
3938	-242.5	-280	0	0	0	0	0	0
3939	-235	-277.5	0	0	0	0	0	0
3940	-242.5	-277.5	0	0	0	0	0	0
3941	-250	-277.5	0	0	0	0	0	0
3942	-252.5	-277.5	0	0	0	0	0	0
3943	-257.5	-280	0	0	0	0	0	0
3944	-257.5	-282.5	0	0	0	0	0	0
3945	-242.5	-267.5	0	0	0	0	0	0
3946	-232.5	-250	0	0	0	0	0	0
3947	-217.5	-240	0	0	0	0	0	0
3948	-197.5	-222.5	0	0	0	0	0	0
3949	-195	-225	0	0	0	0	0	0
3950	-200	-235	0	0	0	0	0	0
3951	-210	-240	0	0	0	0	0	0
3952	-207.5	-237.5	0	0	0	0	0	0
3953	-205	-237.5	0	0	0	0	0	0
3954	-210	-235	0	0	0	0	0	0
3955	-217.5	-240	0	0	0	0	0	0
3956	-227.5	-252.5	0	0	0	0	0	0
3957	-240	-257.5	0	0	0	0	0	0
3958	-245	-255	0	0	0	0	0	0
3959	-240	-245	0	0	0	0	0	0
3960	-237.5	-232.5	0	0	0	0	0	0
3961	-227.5	-222.5	0	0	0	0	0	0
3962	-230	-230	0	0	0	0	0	0
3963	-230	-227.5	0	0	0	0	0	0
3964	-215	-217.5	0	0	0	0	0	0
3965	-220	-220	0	0	0	0	0	0
3966	-207.5	-202.5	0	0	0	0	0	0
3967	-197.5	-190	0	0	0	0	0	0
3968	-197.5	-190	0	0	0	0	0	0
3969	-187.5	-177.5	0	0	0	0	0	0
3970	-195	-177.5	0	0	0	0	0	0
3971	-192.5	-172.5	0	0	0	0	0	0
3972	-187.5	-167.5	0	0	0	0	0	0
3973	-182.5	-162.5	0	0	0	0	0	0
3974	-175	-155	0	0	0	0	0	0
3975	-185	-165	0	0	0	0	0	0
3976	-177.5	-162.5	0	0	0	0	0	0
3977	-175	-157.5	0	0	0	0	0	0
3978	-190	-170	0	0	0	0	0	0
3979	-197.5	-172.5	0	0	0	0	0	0
3980	-215	-185	0	0	0	0	0	0
3981	-227.5	-190	0	0	0	0	0	0
3982	-240	-195	0	0	0	0	0	0
3983	-277.5	-222.5	0	0	0	0	0	0
3984	-280	-227.5	0	0	0	0	0	0
3985	-282.5	-222.5	0	0	0	0	0	0
3986	-297.5	-235	0	0	0	0	0	0
3987	-290	-235	0	0	0	0	0	0
3988	-297.5	-237.5	0	0	0	0	0	0
3989	-287.5	-235	0	0	0	0	0	0
3990	-277.5	-230	0	0	0	0	0	0
3991	-272.5	-227.5	0	0	0	0	0	0
3992	-255	-215	0	0	0	0	0	0
3993	-247.5	-202.5	0	0	0	0	0	0
3994	-250	-202.5	0	0	0	0	0	0
3995	-252.5	-212.5	0	0	0	0	0	0
3996	-257.5	-215	0	0	0	0	0	0
3997	-270	-222.5	0	0	0	0	0	0
3998	-272.5	-227.5	0	0	0	0	0	0
3999	-280	-235	0	0	0	0	0	0
4000	-287.5	-240	0	0	0	0	0	0
4001	-287.5	-232.5	0	0	0	0	0	0
4002	-285	-230	0	0	0	0	0	0
4003	-260	-215	0	0	0	0	0	0
4004	-252.5	-202.5	0	0	0	0	0	0
4005	-245	-195	0	0	0	0	0	0
4006	-227.5	-182.5	0	0	0	0	0	0
4007	-227.5	-180	0	0	0	0	0	0
4008	-230	-180	0	0	0	0	0	0
4009	-222.5	-172.5	0	0	0	0	0	0
4010	-210	-160	0	0	0	0	0	0
4011	-202.5	-165	0	0	0	0	0	0
4012	-200	-172.5	0	0	0	0	0	0
4013	-210	-185	0	0	0	0	0	0
4014	-215	-195	0	0	0	0	0	0
4015	-227.5	-202.5	0	0	0	0	0	0
4016	-242.5	-200	0	0	0	0	0	0
4017	-235	-190	0	0	0	0	0	0
4018	-222.5	-185	0	0	0	0	0	0
4019	-225	-182.5	0	0	0	0	0	0
4020	-237.5	-192.5	0	0	0	0	0	0
4021	-250	-195	0	0	0	0	0	0
4022	-257.5	-182.5	0	0	0	0	0	0
4023	-257.5	-167.5	0	0	0	0	0	0
4024	-250	-150	0	0	0	0	0	0
4025	-225	-135	0	0	0	0	0	0
4026	-217.5	-132.5	0	0	0	0	0	0
4027	-212.5	-135	0	0	0	0	0	0
4028	-200	-142.5	0	0	0	0	0	0
4029	-212.5	-162.5	0	0	0	0	0	0
4030	-205	-165	0	0	0	0	0	0
4031	-200	-172.5	0	0	0	0	0	0
4032	-215	-187.5	0	0	0	0	0	0
4033	-215	-195	0	0	0	0	0	0
4034	-230	-207.5	0	0	0	0	0	0
4035	-242.5	-215	0	0	0	0	0	0
4036	-230	-200	0	0	0	0	0	0
4037	-237.5	-195	0	0	0	0	0	0
4038	-227.5	-172.5	0	0	0	0	0	0
4039	-212.5	-142.5	0	0	0	0	0	0
4040	-210	-127.5	0	0	0	0	0	0
4041	-192.5	-107.5	0	0	0	0	0	0
4042	-187.5	-102.5	0	0	0	0	0	0
4043	-182.5	-100	0	0	0	0	0	0
4044	-175	-92.5	0	0	0	0	0	0
4045	-185	-102.5	0	0	0	0	0	0
4046	-192.5	-120	0	0	0	0	0	0
4047	-192.5	-130	0	0	0	0	0	0
4048	-195	-132.5	0	0	0	0	0	0
4049	-187.5	-132.5	0	0	0	0	0	0
4050	-185	-132.5	0	0	0	0	0	0
4051	-185	-135	0	0	0	0	0	0
4052	-182.5	-135	0	0	0	0	0	0
4053	-180	-127.5	0	0	0	0	0	0
4054	-172.5	-122.5	0	0	0	0	0	0
4055	-177.5	-122.5	0	0	0	0	0	0
4056	-175	-110	0	0	0	0	0	0
4057	-187.5	-112.5	0	0	0	0	0	0
4058	-212.5	-120	0	0	0	0	0	0
4059	-212.5	-115	0	0	0	0	0	0
4060	-220	-115	0	0	0	0	0	0
4061	-222.5	-102.5	0	0	0	0	0	0
4062	-215	-90	0	0	0	0	0	0
4063	-217.5	-90	0	0	0	0	0	0
4064	-207.5	-75	0	0	0	0	0	0
4065	-192.5	-57.5	0	0	0	0	0	0
4066	-175	-40	0	0	0	0	0	0
4067	-165	-20	0	0	0	0	0	0
4068	-157.5	-10	0	0	0	0	0	0
4069	-155	-7.5	0	0	0	0	0	0
4070	-165	-5	0	0	0	0	0	0
4071	-167.5	0	0	0	0	0	0	0
4072	-175	5	0	0	0	0	0	0
4073	-177.5	17.5	0	0	0	0	0	0
4074	-172.5	35	0	0	0	0	0	0
4075	-175	52.5	0	0	0	0	0	0
4076	-167.5	75	0	0	0	0	0	0
4077	-150	100	0	0	0	0	0	0
4078	-132.5	127.5	0	0	0	0	0	0
4079	-112.5	160	0	0	0	0	0	0
4080	-90	185	0	0	0	0	0	0
4081	-75	197.5	0	0	0	0	0	0
4082	-57.5	215	0	0	0	0	0	0
4083	-72.5	210	0	0	0	0	0	0
4084	-80	200	0	0	0	0	0	0
4085	-80	180	0	0	0	0	0	0
4086	-100	145	0	0	0	0	0	0
4087	-105	117.5	0	0	0	0	0	0
4088	-120	75	0	0	0	0	0	0
4089	-140	37.5	0	0	0	0	0	0
4090	-137.5	20	0	0	0	0	0	0
4091	-142.5	-2.5	0	0	0	0	0	0
4092	-135	-25	0	0	0	0	0	0
4093	-117.5	-35	0	0	0	0	0	0
4094	-122.5	-55	0	0	0	0	0	0
4095	-127.5	-65	0	0	0	0	0	0
4096	-132.5	-72.5	0	0	0	0	0	0
4097	-135	-75	0	0	0	0	0	0
4098	-135	-70	0	0	0	0	0	0
4099	-142.5	-77.5	0	0	0	0	0	0
4100	-147.5	-87.5	0	0	0	0	0	0
4101	-160	-100	0	0	0	0	0	0
4102	-175	-110	0	0	0	0	0	0
4103	-162.5	-115	0	0	0	0	0	0
4104	-150	-112.5	0	0	0	0	0	0
4105	-140	-112.5	0	0	0	0	0	0
4106	-122.5	-110	0	0	0	0	0	0
4107	-125	-107.5	0	0	0	0	0	0
4108	-115	-107.5	0	0	0	0	0	0
4109	-110	-102.5	0	0	0	0	0	0
4110	-125	-102.5	0	0	0	0	0	0
4111	-120	-100	0	0	0	0	0	0
4112	-132.5	-100	0	0	0	0	0	0
4113	-152.5	-107.5	0	0	0	0	0	0
4114	-165	-112.5	0	0	0	0	0	0
4115	-180	-120	0	0	0	0	0	0
4116	-187.5	-130	0	0	0	0	0	0
4117	-185	-135	0	0	0	0	0	0
4118	-190	-142.5	0	0	0	0	0	0
4119	-185	-140	0	0	0	0	0	0
4120	-175	-130	0	0	0	0	0	0
4121	-165	-122.5	0	0	0	0	0	0
4122	-150	-110	0	0	0	0	0	0
4123	-137.5	-102.5	0	0	0	0	0	0
4124	-122.5	-97.5	0	0	0	0	0	0
4125	-112.5	-87.5	0	0	0	0	0	0
4126	-105	-85	0	0	0	0	0	0
4127	-112.5	-95	0	0	0	0	0	0
4128	-120	-97.5	0	0	0	0	0	0
4129	-110	-100	0	0	0	0	0	0
4130	-132.5	-115	0	0	0	0	0	0
